1665978419.534999,11373,1025,-4105,-11009,154,607,1942,-126,-327,-257
1665978419.5450397,11340,993,-4095,-11050,145,595,1933,-48,-351,-191
1665978419.5574305,11311,961,-4095,-11082,167,594,1933,3,-377,-135
1665978419.5826747,11290,935,-4106,-11102,141,586,1932,84,-395,-67
1665978419.6037624,11271,911,-4127,-11115,180,625,1918,119,-404,-32
1665978419.6234863,11252,892,-4155,-11126,192,638,1863,149,-397,-25
1665978419.6407366,11240,866,-4173,-11133,158,605,1867,100,-400,26
1665978419.663815,11228,836,-4188,-11142,144,596,1900,87,-416,26
1665978419.684117,11212,805,-4204,-11154,203,661,1877,44,-401,-6
1665978419.7007031,11194,771,-4209,-11173,223,718,1934,-35,-380,-27
1665978419.7240994,11176,738,-4203,-11195,195,745,1979,-84,-360,-29
1665978419.7463481,11160,695,-4187,-11219,201,712,1960,-154,-346,-30
1665978419.760962,11142,650,-4163,-11248,208,690,1981,-191,-335,-55
1665978419.7838163,11124,605,-4140,-11278,231,653,1971,-180,-319,-67
1665978419.803579,11106,572,-4127,-11302,255,710,1995,-110,-313,-58
1665978419.8206573,11091,551,-4122,-11320,229,720,1978,-46,-297,-35
1665978419.8513286,11075,526,-4113,-11339,263,693,1944,-64,-277,-44
1665978419.864489,11061,500,-4103,-11358,287,674,1934,-76,-266,-42
1665978419.8808987,11049,480,-4096,-11373,258,661,1917,-29,-260,-22
1665978419.9037607,11037,465,-4096,-11386,293,681,1899,-1,-246,-26
1665978419.9234645,11026,450,-4087,-11400,285,675,1892,-32,-212,-25
1665978419.9406006,11017,433,-4069,-11415,256,665,1909,-74,-204,-20
1665978419.9662678,11010,420,-4054,-11429,230,657,1946,-38,-214,-4
1665978419.9845328,11002,410,-4043,-11440,246,662,1933,-14,-209,-4
1665978420.0010264,10995,396,-4031,-11452,264,636,1905,-27,-203,-4
1665978420.023771,10989,380,-4020,-11462,252,638,1901,-31,-219,8
1665978420.0436165,10984,372,-4018,-11468,242,638,1921,38,-231,26
1665978420.0605965,10980,365,-4020,-11471,238,669,1917,48,-238,43
1665978420.0845413,10979,354,-4022,-11472,249,631,1912,51,-243,57
1665978420.1040807,10975,346,-4024,-11475,238,630,1909,59,-249,41
1665978420.12069,10970,335,-4024,-11480,250,622,1913,42,-246,28
1665978420.1442943,10964,319,-4021,-11487,269,647,1898,-5,-241,25
1665978420.1645966,10958,308,-4018,-11495,237,679,1944,1,-248,24
1665978420.180996,10951,300,-4014,-11502,208,655,1940,20,-249,22
1665978420.2115946,10943,290,-4011,-11512,216,654,1945,18,-260,9
1665978420.2235668,10932,277,-4014,-11521,256,667,1903,8,-272,1
1665978420.240559,10921,265,-4015,-11532,252,671,1914,8,-270,-5
1665978420.2631297,10912,251,-4015,-11541,253,675,1932,-4,-265,8
1665978420.2836487,10902,235,-4013,-11551,263,636,1933,1,-273,6
1665978420.3007607,10893,224,-4018,-11558,248,649,1941,41,-284,10
1665978420.323187,10883,217,-4029,-11563,245,680,1927,72,-288,18
1665978420.3441489,10874,209,-4039,-11569,264,662,1920,67,-279,12
1665978420.3606853,10864,200,-4044,-11576,280,658,1890,37,-258,5
1665978420.383146,10855,187,-4042,-11586,281,671,1894,-16,-242,1
1665978420.4126496,10848,177,-4032,-11596,265,665,1917,-29,-218,12
1665978420.4237502,10844,169,-4023,-11603,263,640,1936,-1,-209,20
1665978420.4432523,10839,166,-4022,-11609,261,660,1926,40,-212,24
1665978420.4654746,10833,166,-4019,-11614,255,675,1917,34,-204,23
1665978420.4810317,10830,158,-4008,-11621,256,644,1944,-6,-201,30
1665978420.5064592,10828,153,-3998,-11627,251,622,1938,10,-194,33
1665978420.529184,10825,152,-3992,-11632,239,633,1922,41,-199,29
1665978420.5465806,10820,155,-3994,-11636,261,696,1921,54,-200,27
1665978420.567544,10815,156,-3993,-11641,253,691,1926,36,-204,28
1665978420.5845387,10812,153,-3985,-11646,255,640,1921,20,-192,28
1665978420.608516,10809,155,-3980,-11651,249,638,1927,50,-183,28
1665978420.6263976,10807,155,-3975,-11654,252,645,1913,38,-186,38
1665978420.6440363,10804,158,-3978,-11656,259,658,1906,74,-197,39
1665978420.666564,10800,162,-3980,-11659,253,705,1915,55,-196,34
1665978420.6860206,10795,160,-3974,-11665,241,670,1917,14,-198,26
1665978420.703507,10790,157,-3971,-11671,271,679,1897,13,-194,21
1665978420.7247903,10786,155,-3968,-11676,278,698,1897,8,-187,31
1665978420.7427647,10785,155,-3961,-11680,250,663,1882,16,-172,40
1665978420.761823,10785,152,-3953,-11682,257,643,1899,9,-177,53
1665978420.7840848,10786,154,-3950,-11682,252,637,1902,57,-176,61
1665978420.802866,10785,160,-3948,-11684,238,677,1893,59,-170,47
1665978420.8209484,10785,167,-3943,-11685,247,682,1888,38,-149,48
1665978420.8438518,10788,171,-3937,-11685,234,682,1915,34,-160,73
1665978420.8629403,10792,175,-3933,-11682,230,652,1948,65,-176,86
1665978420.8817759,10797,188,-3931,-11678,224,664,1946,108,-150,80
1665978420.9031527,10807,206,-3933,-11668,241,688,1944,131,-121,116
1665978420.9228127,10827,211,-3927,-11651,253,596,1839,90,-111,183
1665978420.9408522,10858,221,-3931,-11621,268,556,1928,202,-118,262
1665978420.9633799,10889,270,-3946,-11585,283,656,1945,356,5,240
1665978420.9829624,10912,373,-3972,-11552,227,729,1986,581,140,146
1665978421.0053465,10957,472,-3988,-11500,152,770,1896,521,176,326
1665978421.0234702,10995,531,-3983,-11463,86,715,1872,295,56,302
1665978421.0428636,10998,589,-3981,-11458,342,842,1835,200,127,-1
1665978421.0653489,10996,719,-3934,-11469,399,1179,2296,216,543,-147
1665978421.0830877,10984,830,-3815,-11513,-255,1198,1944,-268,471,-179
1665978421.1028166,10950,842,-3704,-11580,-33,728,1880,-423,148,-329
1665978421.1254268,10908,850,-3641,-11640,11,706,1893,-233,-27,-336
1665978421.1438181,10872,869,-3616,-11679,113,674,1879,-3,-60,-264
1665978421.1629145,10842,881,-3568,-11721,42,709,1828,-153,-15,-230
1665978421.1853755,10818,871,-3514,-11760,58,631,1892,-216,-69,-187
1665978421.2033954,10792,878,-3481,-11793,-55,691,1834,-106,-122,-156
1665978421.22286,10755,887,-3467,-11830,74,817,1862,-76,-131,-228
1665978421.2454495,10717,874,-3393,-11887,68,725,1853,-385,-10,-307
1665978421.2639651,10690,830,-3306,-11939,18,489,1864,-447,-95,-225
1665978421.2827148,10660,821,-3267,-11977,10,619,1896,-171,-125,-199
1665978421.3053348,10622,812,-3238,-12019,-8,794,1831,-227,-175,-229
1665978421.3400216,10589,764,-3183,-12066,97,639,1842,-418,-185,-221
1665978421.3450112,10554,724,-3109,-12118,78,604,1890,-456,-95,-263
1665978421.383739,10512,688,-3022,-12179,-8,605,1910,-508,-82,-314
1665978421.3886566,10468,646,-2923,-12243,-43,619,1907,-608,-76,-331
1665978421.406736,10421,595,-2805,-12314,19,577,1944,-707,-19,-376
1665978421.426317,10378,552,-2670,-12382,-131,483,1914,-725,12,-344
1665978421.4441605,10341,492,-2535,-12443,79,460,2042,-768,54,-317
1665978421.4820025,10291,468,-2409,-12510,-387,437,1840,-641,-57,-360
1665978421.4977324,10243,462,-2279,-12575,-388,448,1846,-602,44,-363
1665978421.5168722,10194,469,-2159,-12635,-483,438,1661,-547,39,-351
1665978421.5258555,10160,443,-2076,-12677,-89,515,1972,-503,-27,-240
1665978421.5455058,10144,423,-1983,-12705,-135,291,2223,-376,14,-134
1665978421.563577,10135,430,-1942,-12719,-173,367,2101,-106,-54,-56
1665978421.5857227,10132,442,-1906,-12726,-257,276,1969,-35,-72,-6
1665978421.6053367,10130,447,-1891,-12729,-215,310,1991,16,-153,17
1665978421.6241717,10131,447,-1880,-12730,-207,293,2022,30,-183,40
1665978421.6467593,10137,461,-1880,-12726,-209,334,2022,109,-154,71
1665978421.6699944,10139,478,-1873,-12724,-226,401,1985,47,-126,53
1665978421.6865487,10141,445,-1824,-12731,-251,198,1907,-220,-207,39
1665978421.7088091,10129,442,-1796,-12744,-172,333,2022,-94,-123,-65
1665978421.7295563,10125,440,-1760,-12753,-261,341,2017,-128,-133,-11
1665978421.7467146,10123,430,-1729,-12759,-246,304,2077,-113,-170,15
1665978421.7690177,10120,425,-1713,-12764,-251,322,2014,-48,-201,11
1665978421.7939782,10118,415,-1707,-12767,-176,316,1999,-17,-218,22
1665978421.805721,10121,418,-1703,-12764,-227,348,2023,24,-193,59
1665978421.8291097,10124,420,-1693,-12763,-272,306,1991,9,-197,58
1665978421.8542204,10123,419,-1680,-12765,-205,343,2018,-36,-170,26
1665978421.8666253,10122,405,-1662,-12769,-249,321,1992,-94,-226,29
1665978421.8883946,10124,396,-1665,-12768,-140,335,2008,9,-220,46
1665978421.9085703,10132,404,-1668,-12760,-212,346,2006,66,-182,97
1665978421.9265752,10148,414,-1667,-12748,-226,297,1978,80,-157,145
1665978421.9492886,10167,432,-1677,-12731,-223,258,2020,187,-157,166
1665978421.96959,10191,465,-1700,-12707,-247,317,2044,275,-149,209
1665978421.990189,10223,507,-1728,-12676,-311,324,2071,338,-155,280
1665978422.0332596,10261,549,-1764,-12639,-338,276,2088,409,-193,325
1665978422.0339313,10300,612,-1831,-12594,-342,376,2119,582,-209,354
1665978422.0490632,10345,689,-1916,-12541,-382,409,2124,713,-232,418
1665978422.0779822,10400,770,-2029,-12473,-336,424,2082,863,-279,508
1665978422.0952334,10443,869,-2165,-12407,-428,473,2063,1019,-341,469
1665978422.1225452,10500,941,-2321,-12325,-79,478,2216,1062,-342,563
1665978422.144555,10555,1000,-2489,-12241,-24,513,2237,1080,-424,569
1665978422.159889,10597,1082,-2623,-12169,-345,468,1990,1013,-380,502
1665978422.1766078,10628,1162,-2818,-12091,-184,777,1434,1032,-506,489
1665978422.1981275,10669,1213,-2917,-12026,-266,579,2292,799,-376,487
1665978422.2141354,10703,1241,-3117,-11943,371,907,1781,906,-492,489
1665978422.2355134,10719,1353,-3273,-11875,-464,688,1036,997,-379,409
1665978422.2517555,10732,1487,-3342,-11827,-1001,605,1640,891,-289,375
1665978422.2724743,10754,1580,-3368,-11788,-978,637,2296,699,-326,410
1665978422.2947955,10780,1632,-3396,-11749,-720,564,2522,656,-383,412
1665978422.3117342,10789,1694,-3438,-11719,-791,648,2516,713,-444,329
1665978422.3323085,10785,1796,-3473,-11697,-1282,698,2233,752,-494,324
1665978422.3548162,10760,1931,-3520,-11685,-1656,756,1306,682,-537,265
1665978422.3717365,10725,2001,-3722,-11643,-327,1204,671,742,-677,225
1665978422.3925896,10738,1873,-3966,-11572,1725,1370,2457,605,-730,295
1665978422.4175563,10712,1952,-4001,-11570,-1372,731,1415,494,-603,252
1665978422.432357,10709,1859,-4220,-11511,1622,1424,2030,517,-576,161
1665978422.4521198,10664,1966,-4257,-11521,-1373,828,852,413,-488,112
1665978422.4750254,10661,1889,-4338,-11507,859,1085,2686,340,-469,69
1665978422.4976833,10641,1834,-4509,-11468,1275,1506,1864,399,-469,47
1665978422.5361743,10589,1897,-4607,-11467,-459,1179,711,334,-470,25
1665978422.5369022,10534,1981,-4625,-11496,-1187,827,873,258,-458,5
1665978422.5493672,10495,1993,-4641,-11523,-254,997,1628,143,-377,-81
1665978422.5724146,10447,1952,-4735,-11535,393,1334,1426,84,-568,-78
1665978422.589181,10424,1890,-4733,-11567,290,1038,2155,-72,-408,-75
1665978422.6243322,10369,1890,-4808,-11586,13,1157,1072,125,-486,-113
1665978422.6416562,10335,1821,-4821,-11622,421,1157,2324,-30,-484,-130
1665978422.6622984,10273,1810,-4921,-11637,279,1331,909,78,-499,-149
1665978422.6793485,10232,1772,-4865,-11702,-187,1002,1809,-326,-360,-187
1665978422.7008607,10205,1650,-4827,-11759,717,1154,2432,-439,-414,-199
1665978422.7170267,10159,1566,-4897,-11782,978,1325,1410,-178,-422,-214
1665978422.724215,10091,1552,-4977,-11808,413,1326,696,-101,-369,-255
1665978422.747155,10040,1518,-4959,-11863,100,1126,1162,-399,-296,-229
1665978422.7691917,10006,1441,-4908,-11923,383,1046,1711,-508,-278,-221
1665978422.7841778,9967,1400,-4878,-11973,216,1042,1712,-284,-284,-198
1665978422.8067362,9925,1368,-4869,-12014,176,1135,1693,-201,-334,-168
1665978422.8292012,9882,1312,-4843,-12067,225,1085,1649,-369,-352,-196
1665978422.8443964,9839,1245,-4787,-12131,243,1007,1733,-495,-305,-250
1665978422.8817806,9793,1192,-4733,-12195,208,990,1762,-436,-276,-269
1665978422.9103558,9743,1139,-4685,-12258,181,1055,1760,-445,-318,-268
1665978422.9110897,9691,1077,-4644,-12321,204,1066,1735,-467,-360,-258
1665978422.9401915,9645,1008,-4595,-12380,248,1014,1768,-493,-338,-237
1665978422.9724662,9609,953,-4552,-12429,182,909,1783,-369,-313,-173
1665978422.973207,9573,911,-4532,-12467,164,932,1797,-221,-344,-138
1665978422.99177,9538,871,-4524,-12499,207,970,1778,-181,-347,-123
1665978423.0153308,9508,831,-4507,-12531,185,911,1743,-208,-319,-101
1665978423.0350552,9480,788,-4484,-12564,313,926,1889,-217,-265,-127
1665978423.0466835,9446,752,-4468,-12597,218,996,1788,-227,-304,-126
1665978423.0694304,9414,702,-4436,-12635,209,903,1796,-311,-317,-121
1665978423.1124213,9378,660,-4403,-12676,201,876,1849,-269,-296,-165
1665978423.1142704,9337,628,-4371,-12719,151,935,1853,-272,-284,-189
1665978423.1357167,9295,591,-4334,-12764,126,907,1840,-311,-303,-186
1665978423.1517675,9256,538,-4294,-12808,208,807,1888,-315,-330,-183
1665978423.1727183,9209,506,-4271,-12851,128,841,1882,-199,-334,-216
1665978423.1895382,9162,477,-4255,-12891,77,908,1800,-207,-359,-192
1665978423.2146857,9101,456,-4243,-12939,-137,921,1599,-229,-432,-234
1665978423.2480834,9040,429,-4246,-12981,-40,876,1432,-193,-430,-233
1665978423.2624469,8992,364,-4245,-13017,492,1002,1942,-264,-396,-212
1665978423.2721505,8949,352,-4172,-13070,-105,716,2020,-300,-214,-227
1665978423.286671,8906,273,-4175,-13100,633,982,1956,-276,-395,-181
1665978423.3094738,8855,278,-4166,-13138,-165,716,1150,-147,-260,-217
1665978423.3243208,8814,253,-4145,-13172,84,847,1846,-193,-321,-158
1665978423.3468232,8780,232,-4113,-13205,127,783,1885,-193,-249,-149
1665978423.3693156,8750,209,-4087,-13234,164,757,1884,-160,-242,-130
1665978423.3899467,8719,189,-4058,-13263,177,748,1851,-170,-215,-136
1665978423.406723,8687,167,-4013,-13299,175,765,1862,-268,-177,-163
1665978423.4296951,8654,142,-3948,-13339,126,730,1915,-353,-158,-170
1665978423.4499679,8623,121,-3886,-13378,94,691,1928,-317,-163,-157
1665978423.4667346,8592,95,-3833,-13414,140,727,1893,-314,-182,-155
1665978423.489399,8560,61,-3762,-13454,167,671,1908,-409,-153,-168
1665978423.5097656,8531,34,-3685,-13494,99,625,1924,-403,-131,-158
1665978423.5267715,8500,15,-3613,-13533,73,673,1926,-383,-126,-166
1665978423.5493798,8467,-19,-3530,-13576,108,618,1890,-476,-136,-177
1665978423.5699742,8434,-58,-3437,-13619,123,579,1950,-514,-125,-183
1665978423.586904,8405,-85,-3348,-13660,45,552,1994,-454,-121,-162
1665978423.6093435,8378,-108,-3281,-13693,46,567,1955,-353,-154,-132
1665978423.6301749,8353,-137,-3217,-13722,106,562,1896,-365,-151,-119
1665978423.6468468,8322,-172,-3136,-13759,144,586,1917,-491,-112,-163
1665978423.6693032,8294,-203,-3030,-13800,86,540,1989,-585,-60,-158
1665978423.6901643,8275,-222,-2929,-13833,15,452,2050,-474,-41,-109
1665978423.7069323,8264,-227,-2859,-13854,7,446,2015,-287,-53,-54
1665978423.7586806,8250,-237,-2799,-13874,78,493,1934,-297,-57,-68
1665978423.7593477,8230,-259,-2702,-13905,95,462,1956,-508,-6,-115
1665978423.78211,8211,-282,-2576,-13940,14,356,2046,-598,27,-122
1665978423.795696,8194,-282,-2471,-13968,-150,331,2077,-431,-3,-96
1665978423.8118563,8186,-308,-2390,-13986,189,363,2041,-405,0,-46
1665978423.8337672,8166,-333,-2316,-14010,27,456,1816,-469,-88,-93
1665978423.8520265,8149,-382,-2220,-14035,261,462,2066,-623,-39,-88
1665978423.8792317,8133,-399,-2069,-14066,63,226,2427,-659,137,-114
1665978423.8892581,8106,-401,-1957,-14098,-231,269,1482,-568,37,-156
1665978423.9097352,8093,-427,-1808,-14124,5,152,2359,-675,82,-80
1665978423.9303572,8081,-423,-1705,-14144,-204,189,2138,-424,18,-70
1665978423.9469461,8075,-415,-1633,-14156,-163,243,2057,-295,-15,-24
1665978423.9695582,8071,-422,-1563,-14166,-40,222,2014,-330,-17,-12
1665978423.9901562,8071,-423,-1489,-14174,-69,179,2043,-315,14,5
1665978424.0070462,8079,-404,-1426,-14177,-155,153,2097,-191,37,53
1665978424.0296414,8094,-378,-1385,-14173,-121,192,2075,-87,40,100
1665978424.050675,8116,-352,-1348,-14164,-103,170,2026,-57,48,139
1665978424.0670485,8142,-319,-1313,-14154,-124,143,2027,-16,74,160
1665978424.0893946,8168,-276,-1276,-14143,-177,150,2065,2,107,160
1665978424.1102686,8197,-230,-1245,-14130,-198,150,2086,40,97,182
1665978424.1269433,8229,-180,-1227,-14113,-238,178,2073,100,66,202
1665978424.1494937,8260,-135,-1211,-14097,-230,158,2050,107,49,200
1665978424.1701334,8292,-89,-1190,-14081,-258,129,2067,99,56,202
1665978424.187047,8322,-45,-1175,-14064,-309,110,2086,140,14,200
1665978424.2093718,8356,1,-1191,-14043,-324,97,2141,314,-78,228
1665978424.2318091,8399,67,-1264,-14010,-330,188,2103,606,-139,304
1665978424.2469356,8452,127,-1366,-13969,-256,338,2027,661,-198,382
1665978424.2694008,8512,161,-1441,-13924,-229,238,2012,524,-235,431
1665978424.2993104,8580,198,-1541,-13871,-275,192,2037,695,-315,494
1665978424.312932,8659,263,-1712,-13801,-264,292,2046,1089,-381,599
1665978424.3586848,8750,342,-1922,-13714,-201,461,1968,1256,-397,699
1665978424.359413,8846,406,-2117,-13621,-209,485,1936,1156,-422,760
1665978424.3879876,8940,456,-2298,-13529,-202,424,1909,1100,-456,757
1665978424.3984594,9021,521,-2491,-13438,-170,476,1883,1198,-417,684
1665978424.417876,9100,589,-2692,-13343,-52,634,1788,1170,-375,682
1665978424.4329777,9158,664,-2873,-13262,-334,850,1633,983,-442,603
1665978424.4540515,9219,706,-3048,-13178,-135,885,1746,874,-481,623
1665978424.485164,9288,721,-3182,-13097,39,707,2353,828,-442,635
1665978424.5075252,9331,778,-3353,-13020,-398,669,1293,954,-529,552
1665978424.5224252,9378,781,-3467,-12956,-19,762,2397,707,-513,514
1665978424.5458293,9415,755,-3670,-12874,769,1190,1851,731,-510,461
1665978424.559993,9436,790,-3828,-12811,33,1018,1089,637,-412,387
1665978424.5829113,9449,870,-3908,-12772,-798,662,1105,602,-381,352
1665978424.5976205,9447,964,-3956,-12752,-1164,566,1326,587,-436,279
1665978424.6199718,9431,1074,-4011,-12738,-1207,642,1343,646,-420,205
1665978424.6430056,9408,1201,-4079,-12722,-1223,849,1144,629,-381,187
1665978424.656777,9394,1281,-4202,-12684,-638,1022,825,593,-428,265
1665978424.680978,9407,1207,-4398,-12615,1061,1249,1359,495,-553,311
1665978424.703156,9438,1083,-4524,-12559,1292,1031,2776,505,-601,317
1665978424.7272518,9415,1181,-4561,-12554,-1423,653,1497,608,-554,246
1665978424.7399335,9406,1129,-4768,-12489,1017,1440,1438,589,-597,223
1665978424.7626948,9395,1155,-4778,-12491,-892,651,1776,346,-566,245
1665978424.7794478,9396,1026,-4917,-12447,1589,1329,2248,309,-567,128
1665978424.8005943,9337,1089,-4995,-12455,-848,964,587,289,-533,21
1665978424.8227942,9288,1128,-4989,-12491,-861,735,1611,207,-507,-42
1665978424.8400059,9264,1039,-4998,-12512,741,1089,2722,53,-499,-84
1665978424.8606653,9247,894,-5049,-12516,1488,1334,2738,-22,-550,-66
1665978424.8856306,9215,761,-5136,-12513,1475,1455,2326,11,-604,-78
1665978424.8993866,9174,656,-5241,-12505,1351,1585,2038,45,-596,-81
1665978424.9201076,9132,549,-5324,-12506,1383,1594,2066,-56,-542,-105
1665978424.942366,9104,430,-5381,-12507,1595,1522,2456,-62,-487,-92
1665978424.9595988,9090,321,-5415,-12506,1583,1372,2900,68,-453,-59
1665978424.9802854,9078,259,-5418,-12514,784,1044,2691,134,-463,9
1665978425.0028095,9047,284,-5415,-12538,-671,609,1322,139,-474,52
1665978425.0193346,9002,324,-5478,-12542,-675,856,308,120,-445,77
1665978425.0409894,8993,254,-5562,-12512,1306,1554,1891,103,-383,102
1665978425.0629125,9004,187,-5554,-12510,976,1143,2704,67,-357,121
1665978425.079932,8972,223,-5563,-12528,-882,683,214,-102,-346,124
1665978425.1007462,8980,111,-5579,-12516,1507,1532,2126,-285,-294,146
1665978425.1227212,8978,93,-5517,-12546,-157,680,1619,-204,-277,114
1665978425.1396394,8966,26,-5537,-12546,874,1412,1025,-427,-209,110
1665978425.160171,8972,-22,-5408,-12598,95,827,2068,-576,-176,94
1665978425.1840835,8971,-114,-5372,-12613,878,1337,1286,-693,-166,149
1665978425.1941395,8996,-160,-5235,-12652,-235,503,1797,-541,-192,245
1665978425.2145298,9025,-286,-5226,-12633,1280,1295,1728,-514,-269,345
1665978425.2297194,9032,-346,-5273,-12607,856,1244,1130,-181,-262,256
1665978425.2520373,9056,-374,-5245,-12601,326,1103,1868,-198,-249,323
1665978425.2720327,9105,-416,-5211,-12578,303,944,1811,-184,-250,491
1665978425.2895505,9148,-472,-5208,-12546,422,922,1643,-115,-336,479
1665978425.3121927,9173,-515,-5203,-12528,450,1044,1786,-136,-324,361
1665978425.3329093,9203,-540,-5165,-12521,172,964,1949,-168,-294,377
1665978425.3552701,9229,-639,-5108,-12521,98,966,1862,-533,-577,490
1665978425.372112,9237,-721,-5076,-12523,319,682,1976,-239,-542,261
1665978425.3918917,9262,-816,-5052,-12508,389,677,1842,-250,-552,397
1665978425.4158802,9294,-868,-5096,-12464,403,767,1840,191,-580,443
1665978425.4324412,9320,-888,-5153,-12419,298,882,1893,308,-562,416
1665978425.4524887,9351,-910,-5202,-12374,253,964,1906,242,-565,476
1665978425.4760396,9381,-956,-5225,-12338,330,889,1821,55,-539,466
1665978425.4921694,9392,-1018,-5243,-12317,450,845,1727,-57,-548,329
1665978425.5120018,9405,-1066,-5260,-12296,478,755,1847,43,-509,286
1665978425.5352921,9414,-1100,-5295,-12271,482,827,1869,149,-524,275
1665978425.5522416,9418,-1121,-5348,-12243,530,934,1820,219,-512,248
1665978425.57224,9423,-1140,-5389,-12219,601,958,1811,155,-441,237
1665978425.5951571,9426,-1161,-5406,-12208,623,938,1815,37,-360,186
1665978425.6121418,9427,-1185,-5395,-12210,626,874,1798,-97,-276,139
1665978425.6397617,9431,-1202,-5393,-12205,570,778,1749,8,-290,144
1665978425.6558774,9433,-1220,-5413,-12193,599,822,1747,85,-359,164
1665978425.679985,9429,-1220,-5445,-12182,720,932,1741,150,-284,92
1665978425.6917076,9412,-1219,-5468,-12185,726,1018,1682,35,-251,23
1665978425.7160296,9400,-1238,-5478,-12188,778,906,1729,-15,-277,44
1665978425.7321725,9392,-1263,-5477,-12192,762,817,1685,-60,-256,52
1665978425.752074,9383,-1260,-5490,-12194,701,866,1727,78,-225,23
1665978425.775513,9368,-1248,-5502,-12201,646,943,1714,60,-213,-1
1665978425.7921968,9351,-1243,-5501,-12215,657,904,1741,-4,-203,-27
1665978425.8126526,9335,-1254,-5487,-12232,638,798,1710,-80,-220,-24
1665978425.83538,9318,-1262,-5490,-12242,658,784,1710,18,-263,-24
1665978425.8521826,9299,-1259,-5510,-12249,699,846,1735,116,-266,-45
1665978425.8717005,9284,-1254,-5527,-12253,676,900,1727,90,-247,-2
1665978425.895519,9272,-1251,-5540,-12256,631,899,1711,76,-255,26
1665978425.91345,9261,-1256,-5542,-12264,653,837,1717,18,-239,15
1665978425.9326952,9252,-1257,-5545,-12268,683,835,1742,49,-222,21
1665978425.963502,9245,-1247,-5562,-12267,636,874,1735,142,-235,34
1665978425.9739084,9234,-1236,-5584,-12267,639,892,1688,144,-237,21
1665978425.9918044,9224,-1239,-5595,-12269,685,875,1660,53,-237,27
1665978426.0156286,9214,-1242,-5604,-12272,709,871,1694,56,-232,25
1665978426.0322123,9203,-1236,-5614,-12276,682,895,1719,82,-216,12
1665978426.0523767,9194,-1234,-5613,-12284,667,835,1731,42,-196,3
1665978426.075758,9185,-1231,-5614,-12290,632,841,1674,42,-201,15
1665978426.0921705,9177,-1230,-5626,-12291,682,873,1679,86,-225,29
1665978426.111741,9166,-1225,-5638,-12294,673,926,1710,80,-229,24
1665978426.1360989,9150,-1218,-5648,-12302,660,955,1710,55,-225,-9
1665978426.152225,9137,-1221,-5652,-12310,665,915,1711,15,-238,16
1665978426.1723356,9127,-1224,-5660,-12313,665,891,1708,60,-249,33
1665978426.1957214,9115,-1223,-5673,-12316,660,914,1687,75,-249,28
1665978426.2124305,9101,-1222,-5680,-12323,663,915,1697,45,-233,5
1665978426.2326813,9089,-1230,-5675,-12334,658,869,1715,-18,-234,12
1665978426.2547274,9078,-1236,-5676,-12341,657,861,1682,16,-237,17
1665978426.2781107,9066,-1233,-5690,-12344,683,913,1678,85,-235,13
1665978426.2919219,9053,-1231,-5699,-12349,687,929,1690,60,-225,11
1665978426.3155253,9041,-1234,-5702,-12356,666,916,1709,27,-235,17
1665978426.3401117,9031,-1239,-5704,-12362,637,905,1697,13,-249,42
1665978426.353224,9019,-1250,-5709,-12368,708,892,1698,17,-256,22
1665978426.3748047,9007,-1265,-5711,-12374,728,879,1660,-10,-252,23
1665978426.3985364,8996,-1269,-5711,-12381,669,882,1672,12,-222,18
1665978426.411944,8982,-1271,-5705,-12394,629,882,1690,-16,-215,2
1665978426.4364653,8968,-1278,-5698,-12406,683,889,1690,-32,-214,-7
1665978426.4580882,8954,-1283,-5692,-12419,688,890,1704,-26,-211,-10
1665978426.4726999,8941,-1288,-5690,-12429,685,920,1703,-12,-222,12
1665978426.4956663,8931,-1292,-5688,-12436,670,904,1698,-3,-215,31
1665978426.5204287,8925,-1296,-5681,-12444,672,872,1716,-4,-201,36
1665978426.5345793,8923,-1294,-5674,-12448,651,866,1731,36,-177,58
1665978426.5573168,8918,-1283,-5672,-12454,632,906,1710,51,-163,31
1665978426.578834,8909,-1273,-5677,-12459,681,934,1684,58,-167,11
1665978426.5923586,8901,-1268,-5688,-12460,708,892,1667,99,-192,19
1665978426.6164615,8891,-1254,-5716,-12456,703,919,1636,193,-201,10
1665978426.6388323,8885,-1255,-5734,-12452,734,961,1633,90,-219,56
1665978426.654094,8870,-1266,-5732,-12462,710,969,1654,-60,-226,18
1665978426.6761472,8855,-1278,-5718,-12478,643,874,1692,-77,-228,-3
1665978426.700172,8842,-1287,-5717,-12487,687,846,1677,11,-237,1
1665978426.7133744,8829,-1290,-5722,-12494,677,879,1707,51,-241,-2
1665978426.7343843,8814,-1289,-5716,-12507,622,914,1718,-2,-213,-4
1665978426.7582502,8800,-1288,-5706,-12521,625,872,1743,-2,-205,-21
1665978426.7748349,8791,-1279,-5712,-12526,652,881,1725,102,-194,5
1665978426.7954154,8782,-1264,-5719,-12531,624,911,1712,111,-185,8
1665978426.8197591,8773,-1263,-5722,-12536,652,918,1667,41,-203,27
1665978426.8347845,8761,-1269,-5724,-12543,716,923,1661,7,-213,10
1665978426.8561473,8743,-1272,-5725,-12554,670,961,1687,-6,-226,-12
1665978426.8795679,8729,-1271,-5724,-12565,627,883,1726,37,-225,-12
1665978426.8948278,8718,-1273,-5733,-12568,667,886,1692,79,-240,16
1665978426.9151962,8709,-1281,-5742,-12569,666,916,1675,54,-258,50
1665978426.9383888,8697,-1294,-5748,-12573,690,943,1664,4,-270,44
1665978426.9548936,8681,-1305,-5750,-12583,699,950,1697,-11,-256,3
1665978426.9758184,8661,-1312,-5756,-12593,683,912,1673,25,-260,-25
1665978426.9991608,8644,-1317,-5762,-12601,632,903,1687,40,-271,-6
1665978427.015168,8627,-1324,-5764,-12611,638,906,1696,17,-268,-1
1665978427.0352492,8608,-1341,-5763,-12623,693,903,1698,-29,-282,-11
1665978427.058497,8587,-1355,-5757,-12638,660,923,1702,-54,-276,-19
1665978427.074775,8570,-1369,-5749,-12652,676,875,1713,-44,-257,-12
1665978427.0949163,8559,-1382,-5751,-12657,700,867,1681,28,-258,24
1665978427.1182613,8550,-1387,-5758,-12660,669,895,1673,57,-244,34
1665978427.1348526,8538,-1394,-5761,-12666,694,934,1683,16,-238,22
1665978427.1545858,8523,-1402,-5763,-12674,698,939,1656,-3,-239,12
1665978427.1798682,8511,-1412,-5764,-12681,699,925,1684,-1,-241,23
1665978427.1950648,8499,-1420,-5768,-12686,716,913,1666,23,-236,23
1665978427.2160177,8489,-1424,-5770,-12691,701,903,1686,40,-220,15
1665978427.2373338,8484,-1427,-5770,-12694,683,857,1703,60,-211,43
1665978427.2622077,8479,-1423,-5774,-12696,649,872,1693,96,-211,40
1665978427.2746994,8472,-1428,-5775,-12700,671,933,1664,18,-220,53
1665978427.2980127,8462,-1436,-5774,-12706,681,942,1647,-14,-225,42
1665978427.3307393,8452,-1445,-5773,-12712,709,886,1653,10,-222,23
1665978427.3414218,8443,-1446,-5783,-12713,721,936,1677,73,-219,31
1665978427.3623056,8431,-1443,-5798,-12715,695,981,1721,103,-247,27
1665978427.3807843,8416,-1444,-5808,-12720,693,985,1725,62,-263,12
1665978427.3956766,8395,-1443,-5823,-12728,703,971,1717,86,-266,-36
1665978427.4178078,8367,-1430,-5838,-12741,698,999,1702,94,-224,-96
1665978427.4419534,8343,-1432,-5823,-12762,651,912,1665,-64,-194,-70
1665978427.4561048,8329,-1441,-5808,-12777,646,855,1709,-37,-225,-10
1665978427.4775815,8310,-1450,-5806,-12790,680,927,1686,-15,-257,-23
1665978427.5009525,8295,-1469,-5787,-12806,734,896,1654,-121,-203,-7
1665978427.5154567,8287,-1480,-5764,-12821,712,837,1711,-74,-175,9
1665978427.5374842,8280,-1477,-5758,-12828,680,964,1627,-17,-149,37
1665978427.5607033,8271,-1476,-5740,-12842,713,923,1643,-67,-113,-2
1665978427.5747416,8263,-1481,-5712,-12859,779,861,1676,-104,-88,-22
1665978427.5973003,8261,-1465,-5681,-12875,712,830,1786,-17,-28,-21
1665978427.628986,8266,-1430,-5653,-12888,617,838,1741,44,42,-1
1665978427.6395016,8268,-1402,-5629,-12901,730,953,1762,-3,27,-1
1665978427.65727,8277,-1375,-5587,-12916,650,967,1749,-98,74,58
1665978427.6805155,8283,-1356,-5547,-12932,571,888,1696,-101,12,52
1665978427.6975048,8283,-1338,-5535,-12939,624,917,1710,27,-60,36
1665978427.7179432,8277,-1314,-5540,-12943,582,998,1653,72,-103,20
1665978427.7404895,8261,-1303,-5543,-12953,544,969,1664,33,-190,-3
1665978427.7574522,8235,-1318,-5532,-12973,586,887,1621,-108,-244,-58
1665978427.7774854,8213,-1341,-5506,-12995,631,768,1677,-135,-228,-66
1665978427.8010042,8200,-1338,-5488,-13011,644,797,1731,-17,-125,-55
1665978427.817494,8195,-1314,-5463,-13028,582,856,1779,6,-33,-32
1665978427.8374834,8201,-1293,-5417,-13045,605,828,1792,-89,50,21
1665978427.8605456,8226,-1263,-5345,-13062,566,794,1844,-146,172,98
1665978427.877465,8269,-1216,-5269,-13070,493,781,1871,-89,261,188
1665978427.8976066,8329,-1155,-5204,-13063,459,795,1880,28,309,281
1665978427.9203963,8402,-1085,-5147,-13046,428,810,1880,95,341,359
1665978427.9450936,8483,-1007,-5099,-13018,416,829,1879,173,362,413
1665978427.957038,8569,-918,-5056,-12985,403,878,1864,210,415,442
1665978427.980636,8666,-834,-5005,-12946,340,846,1861,177,417,520
1665978427.9975085,8767,-759,-4953,-12902,368,865,1862,150,404,565
1665978428.0171058,8868,-674,-4913,-12854,394,843,1917,255,418,543
1665978428.0405173,8969,-583,-4880,-12800,346,864,1886,302,419,557
1665978428.057479,9079,-487,-4847,-12739,282,927,1833,286,438,637
1665978428.0769513,9191,-397,-4797,-12680,246,854,1816,216,472,645
1665978428.100974,9298,-313,-4733,-12629,235,777,1825,154,482,592
1665978428.1175723,9401,-233,-4667,-12579,239,735,1849,154,469,561
1665978428.1372404,9506,-162,-4612,-12521,214,755,1773,156,413,625
1665978428.1598587,9612,-100,-4575,-12455,237,758,1739,203,333,654
1665978428.183938,9709,-57,-4543,-12391,333,725,1696,157,285,615
1665978428.198569,9793,-8,-4525,-12332,425,794,1764,210,272,520
1665978428.2199616,9867,47,-4519,-12275,442,902,1742,227,256,478
1665978428.2431386,9935,87,-4525,-12217,421,1004,1657,164,149,505
1665978428.2573004,10008,87,-4518,-12160,428,899,1708,25,31,561
1665978428.2803714,10080,74,-4516,-12102,437,819,1729,44,-49,564
1665978428.3030694,10141,89,-4535,-12043,470,890,1740,203,-9,488
1665978428.3178287,10190,128,-4570,-11988,483,976,1751,311,20,401
1665978428.3400934,10240,172,-4602,-11932,440,1026,1740,295,28,417
1665978428.3632336,10297,197,-4615,-11878,371,986,1735,174,-5,479
1665978428.3772125,10345,211,-4628,-11831,423,919,1727,152,-30,412
1665978428.4007616,10382,231,-4644,-11791,481,920,1718,171,-17,317
1665978428.423408,10414,252,-4667,-11753,478,975,1689,174,-40,304
1665978428.4400654,10446,263,-4688,-11716,425,965,1698,135,-99,322
1665978428.46016,10478,257,-4710,-11679,423,902,1701,113,-178,344
1665978428.4839392,10501,258,-4743,-11644,426,942,1727,169,-213,297
1665978428.5000093,10518,269,-4780,-11615,443,995,1718,189,-185,242
1665978428.519995,10531,276,-4803,-11593,405,1037,1730,92,-188,221
1665978428.5510342,10540,277,-4825,-11576,371,1050,1692,49,-219,216
1665978428.5615184,10541,267,-4847,-11566,392,967,1661,30,-263,155
1665978428.580352,10539,240,-4866,-11560,497,867,1675,-2,-293,112
1665978428.6036959,10532,225,-4895,-11555,522,896,1678,69,-272,69
1665978428.6181965,10516,227,-4930,-11554,471,1030,1653,85,-267,34
1665978428.6399808,10501,211,-4952,-11558,488,1052,1698,-38,-296,48
1665978428.6632104,10493,175,-4953,-11566,490,947,1724,-142,-290,73
1665978428.6802986,10482,157,-4960,-11573,473,909,1744,-37,-262,36
1665978428.7004924,10470,145,-4978,-11577,486,967,1741,7,-276,41
1665978428.7233942,10460,133,-5000,-11577,505,987,1759,33,-282,64
1665978428.7401412,10449,126,-5021,-11577,515,1001,1763,37,-264,53
1665978428.760038,10440,110,-5029,-11582,520,970,1773,-36,-246,49
1665978428.7842908,10434,99,-5029,-11588,489,908,1783,-21,-210,51
1665978428.8001273,10423,96,-5027,-11598,472,959,1797,-24,-190,11
1665978428.8202364,10414,96,-5020,-11609,436,960,1790,-47,-175,18
1665978428.8434606,10407,92,-5010,-11620,396,957,1793,-62,-193,43
1665978428.8600922,10400,89,-5004,-11629,424,923,1774,-36,-182,34
1665978428.8798292,10390,89,-5004,-11638,434,890,1742,10,-188,8
1665978428.9035015,10382,90,-5007,-11644,419,904,1762,32,-202,36
1665978428.920113,10375,94,-5013,-11647,405,914,1778,55,-208,47
1665978428.9401128,10369,97,-5020,-11650,412,915,1774,51,-209,48
1665978428.9654791,10358,99,-5021,-11659,428,929,1775,14,-194,11
1665978428.9802089,10348,100,-5018,-11669,440,933,1772,-4,-175,9
1665978429.0005915,10340,104,-5011,-11679,408,915,1791,-5,-164,17
1665978429.0235167,10333,109,-5004,-11688,397,907,1787,3,-156,21
1665978429.0403225,10326,114,-4997,-11698,422,904,1778,2,-148,11
1665978429.0597472,10315,118,-4992,-11709,425,938,1739,-21,-149,-2
1665978429.083122,10308,119,-4981,-11721,409,916,1743,-45,-148,13
1665978429.105944,10301,123,-4974,-11729,378,899,1773,-3,-163,27
1665978429.121734,10293,124,-4974,-11736,393,890,1765,28,-195,25
1665978429.1434271,10281,126,-4982,-11743,411,915,1759,46,-211,12
1665978429.166746,10272,127,-4991,-11747,413,929,1755,50,-218,34
1665978429.18003,10264,124,-4994,-11753,418,926,1776,13,-214,39
1665978429.2028568,10257,123,-5000,-11757,404,935,1758,23,-216,50
1665978429.225895,10247,130,-5007,-11762,403,945,1784,63,-194,23
1665978429.239839,10234,139,-5012,-11771,410,963,1762,46,-183,-2
1665978429.2626913,10227,132,-5006,-11780,416,870,1740,-27,-187,24
1665978429.2856195,10223,126,-5005,-11784,392,849,1718,14,-202,55
1665978429.3001451,10218,127,-5019,-11783,391,886,1742,97,-235,63
1665978429.322277,10208,136,-5034,-11785,423,922,1750,113,-205,21
1665978429.345724,10203,144,-5042,-11786,387,936,1763,81,-188,56
1665978429.359615,10197,154,-5057,-11784,350,952,1775,120,-230,72
1665978429.383415,10189,159,-5100,-11772,395,920,1717,234,-323,95
1665978429.4266384,10178,148,-5151,-11759,491,859,1718,249,-377,73
1665978429.4359918,10153,182,-5204,-11758,643,1060,1822,338,-189,-98
1665978429.4493318,10126,250,-5194,-11785,534,1372,1851,29,116,-188
1665978429.4663095,10090,279,-5126,-11844,340,1243,1633,-403,107,-249
1665978429.4823208,10064,199,-5050,-11900,500,716,1536,-603,-195,-150
1665978429.4999413,10031,137,-5046,-11931,616,691,1589,-189,-344,-149
1665978429.5250657,9981,132,-5099,-11950,645,962,1626,155,-328,-227
1665978429.542701,9922,123,-5130,-11986,668,1168,1608,-68,-279,-286
1665978429.5621738,9856,71,-5098,-12054,632,1101,1622,-498,-271,-345
1665978429.5839202,9788,7,-5041,-12134,585,939,1684,-588,-271,-400
1665978429.6026673,9714,-45,-5004,-12208,531,876,1724,-417,-328,-421
1665978429.6205237,9633,-88,-4993,-12276,532,894,1738,-277,-392,-441
1665978429.6436877,9547,-129,-4995,-12343,532,944,1787,-227,-448,-450
1665978429.6626453,9459,-179,-4994,-12410,531,944,1770,-271,-473,-447
1665978429.6848893,9370,-230,-4991,-12477,478,905,1803,-258,-509,-440
1665978429.7053566,9286,-281,-4989,-12540,390,808,1850,-198,-554,-401
1665978429.722399,9207,-334,-5000,-12592,334,771,1885,-102,-630,-335
1665978429.7423794,9130,-376,-5033,-12634,326,794,1863,36,-658,-314
1665978429.7677288,9050,-416,-5078,-12672,320,835,1823,71,-683,-302
1665978429.7829795,8973,-456,-5116,-12710,301,808,1827,65,-676,-295
1665978429.802873,8898,-495,-5147,-12749,224,764,1898,70,-695,-271
1665978429.8254879,8830,-530,-5185,-12780,247,794,1912,125,-685,-228
1665978429.8484151,8765,-562,-5222,-12808,301,799,1855,124,-634,-221
1665978429.8629353,8700,-596,-5249,-12839,334,810,1830,58,-595,-230
1665978429.884605,8641,-630,-5264,-12871,298,820,1855,13,-568,-194
1665978429.902263,8595,-662,-5274,-12897,269,781,1867,32,-550,-118
1665978429.921799,8558,-700,-5290,-12913,321,774,1841,56,-544,-57
1665978429.9454334,8522,-735,-5312,-12925,349,826,1811,66,-535,-38
1665978429.962685,8491,-762,-5342,-12932,361,827,1793,139,-513,-24
1665978429.9806392,8469,-793,-5368,-12934,330,780,1791,138,-519,45
1665978430.0091226,8453,-828,-5408,-12926,344,807,1800,204,-570,100
1665978430.022728,8431,-856,-5459,-12916,418,908,1767,227,-552,74
1665978430.042679,8411,-890,-5490,-12914,453,895,1756,113,-500,61
1665978430.0652485,8394,-929,-5506,-12915,487,867,1734,34,-455,73
1665978430.0880673,8377,-959,-5521,-12918,485,867,1756,61,-428,54
1665978430.1024673,8358,-984,-5536,-12922,506,948,1764,42,-401,41
1665978430.124858,8341,-1004,-5543,-12928,544,945,1772,16,-344,28
1665978430.148595,8325,-1025,-5541,-12938,562,916,1722,-31,-294,22
1665978430.1625097,8309,-1042,-5541,-12947,566,918,1737,-11,-287,14
1665978430.186788,8298,-1061,-5541,-12953,578,910,1772,6,-296,40
1665978430.2058823,8293,-1079,-5543,-12953,581,929,1745,16,-282,89
1665978430.2193544,8289,-1097,-5550,-12951,609,913,1755,50,-286,88
1665978430.2423658,8284,-1109,-5560,-12949,640,930,1734,67,-253,68
1665978430.2654128,8281,-1124,-5566,-12947,635,916,1731,50,-250,85
1665978430.279494,8279,-1132,-5572,-12945,654,918,1726,67,-219,68
1665978430.302385,8275,-1133,-5577,-12945,619,929,1716,71,-194,54
1665978430.326706,8270,-1138,-5579,-12948,631,953,1695,28,-194,54
1665978430.3400826,8261,-1148,-5576,-12953,627,936,1699,-10,-219,39
1665978430.3659036,8252,-1160,-5577,-12958,612,924,1731,16,-244,39
1665978430.3885784,8243,-1172,-5581,-12961,621,889,1698,39,-251,40
1665978430.4034646,8232,-1187,-5582,-12966,635,922,1702,2,-249,32
1665978430.4253163,8219,-1197,-5584,-12973,635,918,1687,10,-234,9
1665978430.4491618,8206,-1206,-5582,-12981,613,918,1701,-2,-230,11
1665978430.4627302,8194,-1217,-5574,-12991,618,918,1713,-35,-219,17
1665978430.4856706,8182,-1222,-5564,-13002,628,912,1721,-27,-187,0
1665978430.5087981,8160,-1226,-5559,-13017,613,930,1678,-27,-203,-55
1665978430.5227077,8142,-1245,-5543,-13034,650,855,1702,-89,-225,-33
1665978430.5458255,8129,-1257,-5534,-13044,625,840,1709,-17,-219,-10
1665978430.5692487,8115,-1259,-5541,-13050,603,909,1715,62,-233,-2
1665978430.5854685,8102,-1267,-5544,-13056,639,937,1730,25,-233,9
1665978430.6052651,8091,-1274,-5537,-13065,633,899,1714,-11,-198,12
1665978430.6285975,8075,-1277,-5539,-13074,618,943,1700,12,-213,-15
1665978430.6519787,8059,-1283,-5534,-13085,616,910,1715,-8,-217,-13
1665978430.6657453,8046,-1292,-5529,-13095,606,876,1722,-3,-226,2
1665978430.6884391,8032,-1296,-5529,-13103,607,892,1727,32,-221,-10
1665978430.7053335,8018,-1300,-5530,-13111,613,902,1712,32,-221,-9
1665978430.7210386,8000,-1304,-5532,-13120,624,927,1709,19,-218,-24
1665978430.734675,7983,-1311,-5524,-13134,622,905,1725,-25,-211,-29
1665978430.7572434,7965,-1321,-5515,-13147,633,889,1711,-41,-213,-33
1665978430.780608,7946,-1325,-5507,-13162,637,865,1714,-9,-190,-59
1665978430.794611,7922,-1321,-5508,-13176,636,923,1711,26,-187,-82
1665978430.8172727,7895,-1323,-5500,-13195,647,955,1701,-56,-181,-94
1665978430.8403704,7869,-1331,-5476,-13220,624,890,1716,-131,-177,-93
1665978430.8546882,7843,-1332,-5451,-13246,625,887,1737,-109,-139,-115
1665978430.877186,7812,-1325,-5427,-13274,619,890,1728,-93,-117,-156
1665978430.9004145,7780,-1316,-5404,-13304,600,925,1763,-99,-116,-155
1665978430.914573,7746,-1303,-5375,-13336,572,925,1775,-118,-99,-174
1665978430.9371154,7712,-1289,-5337,-13373,543,881,1787,-145,-82,-188
1665978430.961563,7672,-1274,-5297,-13413,530,897,1773,-173,-73,-220
1665978430.9748204,7626,-1256,-5258,-13456,560,894,1785,-165,-54,-270
1665978430.997242,7577,-1232,-5213,-13503,553,891,1807,-186,-19,-306
1665978431.0204034,7523,-1204,-5160,-13557,555,883,1831,-221,18,-355
1665978431.0430996,7467,-1175,-5102,-13612,548,872,1829,-238,43,-373
1665978431.0572574,7409,-1142,-5048,-13666,556,884,1813,-228,60,-389
1665978431.080631,7344,-1113,-4994,-13723,598,896,1780,-256,70,-431
1665978431.0947976,7273,-1080,-4935,-13785,629,886,1797,-281,109,-496
1665978431.1172624,7200,-1043,-4871,-13849,591,878,1810,-294,134,-505
1665978431.1404562,7132,-998,-4808,-13910,539,850,1833,-248,155,-491
1665978431.1548252,7067,-953,-4752,-13965,510,815,1761,-212,153,-465
1665978431.177298,6998,-914,-4702,-14019,505,848,1775,-206,109,-469
1665978431.2004237,6924,-872,-4650,-14076,458,846,1800,-216,105,-500
1665978431.215136,6841,-830,-4593,-14138,420,773,1836,-211,95,-561
1665978431.2373538,6756,-798,-4546,-14195,385,780,1840,-182,7,-538
1665978431.2604532,6671,-775,-4513,-14247,397,865,1792,-176,-48,-512
1665978431.2748363,6580,-752,-4475,-14303,405,840,1781,-205,-32,-558
1665978431.2973397,6485,-740,-4424,-14362,371,766,1769,-269,-72,-564
1665978431.320448,6391,-733,-4364,-14423,364,731,1781,-316,-65,-564
1665978431.3348079,6298,-717,-4305,-14482,312,734,1803,-287,-53,-562
1665978431.357617,6204,-692,-4257,-14538,291,763,1792,-227,-26,-564
1665978431.380753,6112,-664,-4184,-14599,235,750,1803,-351,27,-556
1665978431.394917,6028,-638,-4079,-14665,160,647,1819,-481,67,-517
1665978431.4172103,5951,-607,-3973,-14727,79,593,1863,-441,67,-473
1665978431.4405053,5874,-566,-3877,-14785,34,591,1869,-368,85,-467
1665978431.4548545,5802,-526,-3762,-14844,12,586,1859,-481,129,-446
1665978431.477396,5746,-489,-3617,-14903,-28,545,1868,-628,187,-355
1665978431.4999216,5715,-438,-3491,-14947,-103,528,1952,-469,212,-203
1665978431.5184882,5697,-369,-3413,-14973,-194,530,1964,-165,189,-125
1665978431.5374463,5683,-297,-3366,-14991,-176,617,2013,-32,161,-92
1665978431.5604923,5679,-232,-3297,-15009,-185,588,2029,-147,185,-29
1665978431.5747504,5708,-178,-3217,-15016,-259,534,1954,-206,167,172
1665978431.597463,5745,-115,-3166,-15014,-267,569,1989,-38,161,227
1665978431.6199555,5779,-39,-3151,-15004,-202,555,1917,166,206,191
1665978431.6390288,5802,42,-3130,-14999,-183,676,1948,96,250,126
1665978431.6574903,5825,125,-3068,-15003,-241,688,1903,-147,324,111
1665978431.6801856,5840,194,-2985,-15013,-303,606,1885,-259,265,73
1665978431.698549,5843,256,-2914,-15025,-311,630,1940,-216,196,18
1665978431.717362,5850,379,-2871,-15028,-184,677,2349,112,522,-33
1665978431.7398753,5837,383,-2764,-15053,-539,869,1748,-702,-133,2
1665978431.7633264,5776,440,-2692,-15088,-205,645,2003,-263,197,-386
1665978431.7775922,5707,489,-2647,-15121,-522,554,1717,-142,-58,-366
1665978431.799928,5659,451,-2590,-15150,-241,499,1950,-318,-321,-221
1665978431.8231058,5586,437,-2513,-15190,-335,586,1828,-450,-223,-383
1665978431.8372686,5489,411,-2449,-15237,-311,550,1883,-394,-320,-513
1665978431.8600433,5381,387,-2389,-15285,-257,536,1962,-354,-300,-580
1665978431.8830988,5275,372,-2345,-15329,-317,470,1981,-220,-312,-569
1665978431.897319,5183,340,-2317,-15366,-393,458,1947,-169,-456,-451
1665978431.9199514,5086,290,-2301,-15401,-374,460,1951,-142,-570,-465
1665978431.943082,4972,235,-2295,-15440,-356,508,1963,-122,-626,-556
1665978431.957339,4846,177,-2296,-15481,-403,508,2044,-82,-694,-607
1665978431.9798462,4715,106,-2309,-15520,-419,452,2010,-13,-799,-621
1665978432.0030224,4576,10,-2323,-15560,-395,498,2005,-75,-938,-646
1665978432.0174177,4433,-95,-2332,-15600,-313,535,2073,-127,-951,-670
1665978432.039926,4290,-198,-2328,-15639,-307,416,2073,-138,-931,-672
1665978432.0634718,4154,-308,-2322,-15675,-314,305,2099,-89,-975,-621
1665978432.0773897,4033,-432,-2328,-15703,-269,233,2072,-12,-1043,-534
1665978432.0999348,3917,-560,-2360,-15723,-182,272,2043,108,-1069,-510
1665978432.1231847,3816,-689,-2419,-15734,-47,369,2054,223,-1046,-426
1665978432.1374917,3732,-798,-2488,-15738,-41,347,2084,332,-952,-344
1665978432.1599886,3674,-907,-2545,-15737,-58,318,2003,285,-936,-195
1665978432.183021,3626,-1027,-2605,-15731,4,229,1990,348,-972,-138
1665978432.197284,3578,-1144,-2689,-15720,73,319,1992,443,-968,-149
1665978432.219953,3534,-1251,-2802,-15702,102,396,1991,597,-947,-126
1665978432.2430089,3499,-1363,-2931,-15677,167,413,2077,705,-988,-79
1665978432.2572808,3473,-1502,-3084,-15641,305,386,2016,835,-1098,-30
1665978432.2798343,3446,-1664,-3269,-15592,435,560,1896,907,-1212,-5
1665978432.303031,3419,-1843,-3446,-15540,525,635,1832,822,-1270,21
1665978432.3173883,3383,-2023,-3608,-15489,611,723,1775,697,-1245,-20
1665978432.3399413,3347,-2202,-3742,-15440,614,611,1729,605,-1216,-13
1665978432.3630877,3318,-2395,-3853,-15390,685,531,1649,506,-1235,31
1665978432.377708,3286,-2561,-3988,-15336,770,649,1702,638,-1126,-25
1665978432.3998652,3250,-2692,-4134,-15283,807,812,1679,663,-956,-76
1665978432.422998,3210,-2807,-4253,-15237,927,961,1656,474,-807,-99
1665978432.4411569,3184,-2891,-4325,-15207,1000,983,1718,266,-547,-48
1665978432.460231,3173,-2954,-4340,-15193,946,889,1704,27,-369,31
1665978432.4830968,3167,-3016,-4327,-15186,816,701,1624,-63,-367,65
1665978432.4974234,3171,-3092,-4337,-15166,831,647,1579,85,-451,114
1665978432.519968,3203,-3162,-4428,-15119,872,603,1605,610,-494,170
1665978432.5433066,3241,-3190,-4575,-15061,847,759,1712,947,-398,137
1665978432.5574102,3273,-3173,-4714,-15015,580,846,1780,928,-281,107
1665978432.5800927,3283,-3147,-4798,-14992,502,845,1839,620,-235,35
1665978432.6030893,3258,-3106,-4844,-14991,436,911,1887,366,-187,-122
1665978432.6175358,3192,-3078,-4827,-15016,395,992,1827,-113,-221,-244
1665978432.6399133,3109,-3093,-4745,-15057,527,718,1833,-430,-319,-314
1665978432.6632364,3012,-3120,-4675,-15093,688,796,1866,-416,-365,-389
1665978432.677555,2937,-3138,-4638,-15115,693,1001,1852,-291,-320,-265
1665978432.6999998,2890,-3152,-4629,-15124,634,1072,1777,-132,-308,-113
1665978432.7231495,2864,-3168,-4634,-15124,594,956,1723,10,-310,-22
1665978432.737541,2842,-3182,-4680,-15111,593,945,1684,247,-346,-41
1665978432.7600152,2819,-3198,-4735,-15095,607,1003,1629,270,-351,-41
1665978432.7832518,2786,-3207,-4763,-15090,579,1038,1678,110,-311,-70
1665978432.7975655,2750,-3220,-4752,-15098,579,940,1635,-91,-282,-72
1665978432.820047,2718,-3237,-4725,-15108,622,812,1648,-126,-263,-71
1665978432.8516574,2685,-3249,-4708,-15117,670,879,1634,-94,-226,-86
1665978432.8624747,2654,-3254,-4694,-15126,652,965,1671,-103,-204,-69
1665978432.880711,2626,-3258,-4666,-15139,635,923,1690,-158,-188,-49
1665978432.902374,2603,-3259,-4634,-15152,599,855,1731,-130,-184,-28
1665978432.9200625,2581,-3255,-4618,-15162,566,880,1750,-49,-189,-36
1665978432.9452975,2554,-3253,-4607,-15170,585,929,1735,-50,-201,-53
1665978432.9628353,2529,-3255,-4584,-15181,608,904,1732,-112,-195,-33
1665978432.9802368,2512,-3261,-4554,-15191,613,812,1736,-102,-200,-9
1665978432.9999716,2497,-3266,-4538,-15197,625,821,1722,-32,-193,-4
1665978433.0226247,2486,-3265,-4525,-15203,591,844,1759,-11,-187,11
1665978433.0408416,2471,-3264,-4507,-15211,589,858,1775,-44,-188,1
1665978433.0600643,2458,-3265,-4492,-15218,587,815,1767,-11,-194,8
1665978433.08251,2449,-3265,-4490,-15220,598,831,1767,59,-197,12
1665978433.1010864,2440,-3267,-4488,-15221,599,866,1772,46,-208,23
1665978433.1200433,2431,-3270,-4479,-15225,596,855,1760,5,-203,28
1665978433.1426876,2423,-3273,-4474,-15227,585,856,1751,31,-208,34
1665978433.161448,2411,-3275,-4477,-15228,601,874,1764,64,-212,3
1665978433.1835606,2399,-3279,-4472,-15230,608,833,1791,39,-222,6
1665978433.202531,2393,-3288,-4471,-15229,607,806,1761,77,-239,37
1665978433.2200181,2387,-3293,-4474,-15228,583,826,1768,93,-230,32
1665978433.2399945,2371,-3299,-4481,-15227,582,931,1672,35,-234,8
1665978433.263008,2353,-3301,-4466,-15234,577,864,1737,-47,-207,-3
1665978433.280867,2339,-3309,-4459,-15237,600,810,1694,12,-222,-4
1665978433.3000674,2322,-3306,-4465,-15238,614,850,1721,75,-185,-39
1665978433.3224294,2308,-3308,-4456,-15242,594,895,1731,-24,-200,12
1665978433.3405476,2291,-3313,-4431,-15251,581,841,1746,-94,-211,5
1665978433.3600543,2271,-3319,-4413,-15258,597,825,1749,-57,-221,-21
1665978433.382498,2257,-3327,-4401,-15262,598,800,1756,0,-228,5
1665978433.4016397,2243,-3330,-4399,-15264,578,843,1771,44,-230,-2
1665978433.4200454,2227,-3330,-4399,-15266,597,884,1784,34,-214,-12
1665978433.4426026,2214,-3335,-4395,-15268,599,850,1766,32,-221,9
1665978433.46035,2205,-3339,-4400,-15267,595,837,1750,83,-226,13
1665978433.4803321,2192,-3345,-4412,-15264,607,881,1749,103,-239,4
1665978433.5063214,2179,-3352,-4419,-15262,614,874,1740,78,-238,2
1665978433.520488,2165,-3360,-4419,-15263,607,854,1719,39,-233,1
1665978433.540124,2152,-3368,-4414,-15264,611,857,1730,12,-232,10
1665978433.5626912,2138,-3374,-4410,-15266,587,863,1715,13,-226,12
1665978433.581089,2121,-3382,-4406,-15268,609,879,1704,-1,-229,-5
1665978433.6000001,2108,-3390,-4396,-15271,616,854,1714,-22,-219,12
1665978433.622511,2096,-3395,-4389,-15273,611,868,1722,1,-211,22
1665978433.6413124,2089,-3399,-4385,-15274,611,883,1746,18,-205,39
1665978433.6600258,2077,-3400,-4381,-15277,589,896,1749,6,-202,25
1665978433.6881752,2065,-3401,-4373,-15281,576,878,1753,-5,-206,21
1665978433.7015054,2051,-3403,-4364,-15285,582,886,1757,-13,-213,17
1665978433.7285614,2040,-3410,-4355,-15287,614,848,1748,-4,-223,24
1665978433.7428596,2034,-3414,-4350,-15288,591,807,1767,51,-217,37
1665978433.7607045,2031,-3418,-4354,-15287,590,818,1755,95,-221,46
1665978433.780451,2023,-3422,-4361,-15285,606,878,1751,85,-220,26
1665978433.8025975,2009,-3428,-4357,-15287,612,881,1742,7,-223,11
1665978433.8228188,1993,-3436,-4349,-15289,609,872,1726,-18,-234,8
1665978433.8400955,1981,-3444,-4343,-15291,605,846,1734,10,-232,20
1665978433.8627384,1970,-3445,-4337,-15293,617,854,1764,21,-199,12
1665978433.8846145,1959,-3458,-4333,-15293,616,841,1738,19,-257,27
1665978433.9046984,1938,-3453,-4333,-15297,583,904,1752,18,-190,-36
1665978433.9226785,1925,-3457,-4324,-15300,609,871,1747,-13,-215,16
1665978433.945134,1916,-3464,-4319,-15301,606,799,1738,40,-224,19
1665978433.9637346,1904,-3468,-4327,-15300,616,882,1739,76,-224,6
1665978433.9827354,1888,-3472,-4330,-15300,599,912,1731,30,-226,0
1665978434.0051336,1874,-3479,-4325,-15302,612,875,1706,-3,-219,11
1665978434.0235033,1860,-3482,-4323,-15303,609,872,1740,25,-218,4
1665978434.0425956,1846,-3487,-4323,-15304,613,878,1742,36,-222,6
1665978434.0651877,1833,-3492,-4324,-15304,609,861,1743,47,-228,6
1665978434.08319,1819,-3497,-4322,-15305,607,868,1730,23,-223,7
1665978434.1027784,1810,-3504,-4317,-15306,616,833,1709,23,-216,22
1665978434.1252003,1801,-3506,-4320,-15306,596,848,1729,64,-210,22
1665978434.1427383,1788,-3509,-4324,-15305,615,881,1734,59,-211,4
1665978434.163225,1773,-3514,-4318,-15308,621,896,1745,-6,-218,6
1665978434.185051,1758,-3519,-4311,-15310,610,873,1722,-8,-219,8
1665978434.2038364,1743,-3524,-4307,-15312,606,874,1701,-2,-215,5
1665978434.231044,1730,-3526,-4302,-15314,601,867,1739,14,-208,6
1665978434.2455723,1714,-3529,-4302,-15315,615,890,1716,18,-213,-4
1665978434.2625372,1700,-3533,-4297,-15317,610,884,1709,-2,-205,8
1665978434.282906,1686,-3535,-4292,-15320,614,864,1746,14,-207,5
1665978434.3052275,1672,-3538,-4292,-15321,603,867,1752,39,-220,2
1665978434.3233829,1658,-3541,-4294,-15321,594,891,1744,44,-223,0
1665978434.3427262,1645,-3546,-4293,-15322,616,896,1737,21,-222,14
1665978434.365415,1630,-3552,-4285,-15324,608,869,1729,-11,-225,11
1665978434.3827279,1618,-3559,-4280,-15325,620,853,1758,23,-231,12
1665978434.4029598,1604,-3565,-4283,-15324,598,876,1722,51,-237,11
1665978434.425138,1590,-3573,-4287,-15323,619,903,1730,42,-240,6
1665978434.442052,1577,-3583,-4283,-15323,621,860,1707,16,-237,17
1665978434.462959,1564,-3591,-4282,-15323,621,864,1701,25,-230,9
1665978434.485249,1549,-3598,-4276,-15324,626,869,1716,1,-229,5
1665978434.5043352,1535,-3605,-4270,-15326,616,860,1727,2,-226,12
1665978434.5227458,1522,-3608,-4270,-15326,595,857,1743,53,-224,8
1665978434.5454216,1507,-3611,-4275,-15326,600,890,1749,58,-233,-5
1665978434.5629966,1489,-3618,-4274,-15326,626,887,1729,23,-235,-11
1665978434.5827925,1471,-3626,-4268,-15328,619,875,1723,-11,-240,-10
1665978434.605287,1455,-3632,-4263,-15329,605,852,1729,16,-234,1
1665978434.6240366,1440,-3636,-4267,-15328,602,872,1710,59,-229,-5
1665978434.6510391,1423,-3642,-4272,-15327,629,903,1713,45,-230,-13
1665978434.665268,1408,-3648,-4272,-15327,624,892,1717,28,-226,-1
1665978434.683684,1391,-3655,-4270,-15328,627,895,1718,10,-232,-2
1665978434.7027483,1374,-3660,-4268,-15328,616,891,1703,8,-225,-8
1665978434.7252362,1358,-3664,-4262,-15330,604,868,1709,5,-221,-1
1665978434.7423632,1343,-3667,-4265,-15330,604,883,1704,42,-219,-3
1665978434.7629027,1328,-3671,-4269,-15330,621,924,1704,35,-214,2
1665978434.7852378,1309,-3672,-4263,-15333,613,907,1713,-17,-205,-13
1665978434.8061585,1293,-3677,-4255,-15335,632,869,1742,-1,-217,-6
1665978434.82599,1280,-3679,-4259,-15335,621,874,1739,68,-212,-3
1665978434.845455,1267,-3682,-4266,-15333,617,907,1740,73,-224,7
1665978434.8666632,1252,-3687,-4265,-15333,617,902,1726,26,-226,6
1665978434.8859377,1235,-3692,-4261,-15335,605,895,1713,0,-230,-6
1665978434.9053395,1219,-3696,-4256,-15336,606,870,1707,9,-220,-2
1665978434.9257195,1204,-3701,-4255,-15336,623,879,1717,35,-221,1
1665978434.9459364,1192,-3706,-4257,-15336,626,897,1733,51,-221,9
1665978434.965292,1178,-3710,-4260,-15335,617,908,1715,40,-225,6
1665978434.986309,1163,-3715,-4256,-15336,617,898,1707,10,-218,6
1665978435.006188,1148,-3720,-4253,-15337,628,889,1726,19,-221,0
1665978435.0252461,1132,-3724,-4254,-15337,623,897,1718,34,-217,-7
1665978435.0455475,1118,-3729,-4253,-15337,615,896,1706,27,-225,10
1665978435.065769,1103,-3735,-4251,-15337,618,904,1722,17,-229,7
1665978435.0851948,1090,-3740,-4247,-15338,614,881,1718,22,-226,13
1665978435.1055837,1076,-3744,-4252,-15336,606,902,1719,62,-226,4
1665978435.125605,1063,-3750,-4256,-15335,628,910,1720,55,-229,12
1665978435.1451912,1050,-3755,-4260,-15333,615,914,1711,51,-230,12
1665978435.1664042,1036,-3762,-4259,-15333,625,910,1699,27,-228,12
1665978435.1857262,1021,-3769,-4257,-15333,626,910,1700,13,-228,3
1665978435.2052732,1004,-3776,-4252,-15333,634,900,1725,6,-234,-2
1665978435.2254398,990,-3780,-4249,-15334,618,891,1718,21,-223,10
1665978435.2456584,981,-3787,-4254,-15332,618,879,1708,78,-234,24
1665978435.2654233,967,-3793,-4259,-15330,624,914,1704,58,-229,5
1665978435.2858603,948,-3798,-4261,-15329,626,945,1709,23,-232,-12
1665978435.3064175,928,-3803,-4257,-15330,642,925,1715,0,-226,-19
1665978435.325379,914,-3811,-4259,-15328,636,908,1706,44,-234,4
1665978435.345879,899,-3817,-4262,-15327,622,903,1721,55,-235,1
1665978435.3652794,884,-3823,-4260,-15327,620,886,1715,35,-235,4
1665978435.38526,873,-3829,-4263,-15325,622,883,1720,71,-235,14
1665978435.4058642,861,-3836,-4268,-15323,618,900,1701,72,-237,13
1665978435.4263957,844,-3841,-4274,-15321,631,947,1723,55,-234,-6
1665978435.4454727,829,-3851,-4269,-15320,647,908,1679,7,-239,9
1665978435.4674845,816,-3860,-4271,-15318,624,894,1666,44,-234,12
1665978435.4864738,804,-3864,-4274,-15317,629,898,1699,63,-218,6
1665978435.505337,793,-3869,-4276,-15316,622,891,1678,60,-221,20
1665978435.5257308,783,-3876,-4283,-15313,631,905,1691,84,-230,17
1665978435.5452163,769,-3882,-4292,-15309,638,951,1701,74,-232,3
1665978435.5653443,748,-3883,-4290,-15311,612,955,1687,-1,-214,-15
1665978435.5876513,735,-3889,-4281,-15312,625,887,1666,-9,-217,16
1665978435.606059,723,-3894,-4285,-15310,632,891,1678,69,-222,9
1665978435.625352,709,-3899,-4295,-15307,646,965,1691,76,-222,0
1665978435.645923,693,-3906,-4296,-15306,642,952,1670,25,-226,8
1665978435.6655395,678,-3914,-4291,-15306,637,914,1664,5,-229,9
1665978435.6853962,663,-3920,-4289,-15306,635,917,1687,26,-225,5
1665978435.706368,648,-3924,-4288,-15305,624,917,1687,31,-223,3
1665978435.7285957,636,-3929,-4288,-15305,624,911,1709,50,-231,16
1665978435.7456927,622,-3937,-4292,-15302,631,939,1677,53,-235,15
1665978435.7680192,606,-3942,-4291,-15302,636,961,1684,13,-229,6
1665978435.7885249,589,-3947,-4285,-15303,637,942,1686,-8,-222,3
1665978435.808834,576,-3953,-4278,-15304,638,898,1689,12,-218,15
1665978435.8281982,564,-3957,-4278,-15303,637,908,1695,48,-214,13
1665978435.8489473,551,-3960,-4278,-15302,640,942,1691,36,-214,13
1665978435.8693695,533,-3965,-4271,-15304,646,958,1697,-17,-219,2
1665978435.8878038,518,-3970,-4263,-15305,625,921,1682,-10,-222,13
1665978435.9083784,504,-3977,-4258,-15306,640,924,1705,12,-232,18
1665978435.9284792,491,-3983,-4255,-15305,612,907,1670,26,-232,22
1665978435.9481947,475,-3987,-4253,-15305,645,950,1690,15,-220,3
1665978435.9684737,461,-3992,-4245,-15307,631,914,1706,0,-222,17
1665978435.9896462,451,-4001,-4243,-15305,642,913,1687,39,-235,30
1665978436.007927,437,-4006,-4247,-15303,636,954,1684,48,-230,12
1665978436.0299191,420,-4012,-4244,-15303,631,943,1679,5,-232,6
1665978436.0488422,404,-4019,-4236,-15303,635,924,1686,-6,-234,9
1665978436.0681114,389,-4025,-4232,-15303,639,926,1692,16,-230,12
1665978436.08863,377,-4032,-4230,-15302,627,915,1672,31,-230,22
1665978436.1083713,363,-4038,-4231,-15301,650,928,1686,38,-228,7
1665978436.1281838,348,-4043,-4230,-15300,647,934,1683,29,-219,7
1665978436.1487432,333,-4046,-4223,-15302,640,932,1704,3,-218,12
1665978436.1686814,317,-4053,-4217,-15302,643,928,1692,-2,-232,8
1665978436.187887,299,-4058,-4213,-15302,646,953,1690,5,-228,-1
1665978436.208056,284,-4064,-4207,-15302,642,922,1668,-4,-222,9
1665978436.237362,270,-4070,-4204,-15302,644,912,1679,29,-224,12
1665978436.24942,255,-4075,-4202,-15301,647,925,1693,28,-225,4
1665978436.2688496,239,-4080,-4196,-15302,644,938,1694,1,-223,9
1665978436.2898638,224,-4085,-4193,-15302,640,933,1671,9,-222,8
1665978436.3079314,209,-4090,-4192,-15301,644,946,1674,24,-221,10
1665978436.3288872,195,-4094,-4191,-15300,635,928,1675,29,-217,8
1665978436.349926,180,-4099,-4189,-15299,645,937,1692,26,-228,9
1665978436.3681552,166,-4103,-4191,-15298,647,946,1702,43,-221,8
1665978436.38843,152,-4107,-4185,-15299,631,917,1709,18,-228,15
1665978436.409083,136,-4109,-4177,-15301,614,926,1717,-1,-225,11
1665978436.4281352,121,-4120,-4175,-15298,681,924,1677,30,-239,7
1665978436.4490051,107,-4129,-4174,-15296,647,929,1653,27,-235,14
1665978436.4681203,92,-4137,-4172,-15295,676,949,1667,14,-226,9
1665978436.4881053,76,-4141,-4167,-15295,642,957,1686,-6,-219,7
1665978436.5085778,56,-4146,-4162,-15295,647,954,1658,-10,-225,-10
1665978436.5285056,35,-4153,-4154,-15295,671,930,1663,-19,-226,-17
1665978436.548038,24,-4156,-4150,-15296,637,885,1695,39,-215,16
1665978436.5684915,12,-4159,-4148,-15296,635,905,1694,37,-211,12
1665978436.5897229,-2,-4161,-4146,-15295,637,950,1680,22,-212,14
1665978436.60798,-21,-4163,-4140,-15297,637,960,1674,-18,-210,-4
1665978436.6287212,-38,-4167,-4132,-15298,653,936,1691,-13,-220,6
1665978436.6494067,-52,-4172,-4131,-15297,648,930,1675,32,-216,9
1665978436.668072,-66,-4176,-4132,-15295,647,944,1670,34,-216,9
1665978436.6882718,-81,-4180,-4126,-15296,643,916,1689,10,-218,8
1665978436.710768,-95,-4184,-4121,-15296,632,924,1692,19,-226,12
1665978436.7363014,-111,-4188,-4121,-15294,650,946,1679,28,-219,3
1665978436.7492023,-126,-4195,-4115,-15294,641,933,1677,2,-230,14
1665978436.7707107,-142,-4201,-4110,-15294,647,928,1677,7,-234,4
1665978436.7914755,-159,-4208,-4109,-15292,651,945,1663,20,-228,1
1665978436.8084605,-174,-4213,-4105,-15291,653,940,1665,10,-218,10
1665978436.8321204,-188,-4218,-4102,-15291,648,918,1661,19,-214,9
1665978436.851769,-202,-4219,-4101,-15290,643,934,1678,31,-206,4
1665978436.86904,-219,-4222,-4101,-15290,654,946,1696,32,-212,-6
1665978436.890611,-234,-4224,-4098,-15289,644,935,1696,24,-215,1
1665978436.9119906,-250,-4226,-4095,-15289,636,940,1697,23,-215,6
1665978436.9286718,-265,-4231,-4093,-15289,638,927,1689,28,-228,4
1665978436.9520957,-280,-4236,-4093,-15287,650,929,1692,42,-228,3
1665978436.9723291,-294,-4243,-4092,-15285,662,927,1687,44,-230,3
1665978436.988703,-311,-4252,-4089,-15283,655,940,1675,19,-241,5
1665978437.0135972,-329,-4261,-4077,-15283,668,917,1677,-25,-244,1
1665978437.0318468,-348,-4269,-4065,-15284,641,922,1683,-33,-245,1
1665978437.0500042,-369,-4276,-4051,-15285,644,941,1657,-53,-237,1
1665978437.071035,-388,-4283,-4039,-15286,646,932,1653,-47,-234,3
1665978437.0912452,-406,-4289,-4031,-15286,665,949,1658,-25,-222,6
1665978437.108402,-421,-4294,-4023,-15286,660,941,1668,-15,-214,13
1665978437.130941,-435,-4297,-4014,-15287,641,918,1682,-5,-213,17
1665978437.1502175,-448,-4299,-4008,-15288,643,924,1689,4,-210,22
1665978437.168485,-462,-4301,-4004,-15288,647,941,1694,18,-211,12
1665978437.1906734,-479,-4302,-3997,-15289,638,960,1697,-23,-210,7
1665978437.2111623,-496,-4305,-3983,-15291,653,909,1690,-35,-214,6
1665978437.228888,-508,-4309,-3973,-15292,640,868,1703,16,-220,20
1665978437.2523842,-519,-4313,-3976,-15290,646,928,1700,58,-218,16
1665978437.2722833,-534,-4318,-3974,-15288,659,955,1682,17,-221,12
1665978437.2962673,-550,-4321,-3966,-15289,642,921,1698,-5,-221,9
1665978437.311237,-566,-4325,-3962,-15289,647,931,1693,10,-222,6
1665978437.3314884,-581,-4330,-3959,-15287,657,940,1667,12,-220,7
1665978437.3492975,-596,-4333,-3954,-15287,642,925,1679,8,-214,7
1665978437.3710756,-610,-4336,-3954,-15286,653,926,1676,36,-208,7
1665978437.391319,-623,-4339,-3957,-15284,649,924,1686,57,-211,5
1665978437.4085562,-639,-4341,-3956,-15283,661,950,1714,25,-215,-3
1665978437.4316356,-656,-4345,-3950,-15282,642,916,1713,13,-228,0
1665978437.4506862,-672,-4350,-3946,-15281,647,914,1702,25,-234,1
1665978437.4691,-686,-4356,-3943,-15280,635,906,1695,36,-236,11
1665978437.49113,-701,-4363,-3944,-15277,649,947,1669,37,-234,6
1665978437.5111742,-715,-4370,-3943,-15274,656,924,1667,34,-230,11
1665978437.53099,-728,-4378,-3946,-15271,663,931,1671,54,-232,8
1665978437.5512884,-743,-4384,-3952,-15267,653,959,1668,59,-229,4
1665978437.570852,-760,-4389,-3948,-15265,653,964,1668,-3,-226,2
1665978437.590593,-776,-4395,-3936,-15266,648,897,1668,-16,-225,10
1665978437.6108494,-790,-4398,-3935,-15264,646,920,1688,43,-221,4
1665978437.633832,-805,-4402,-3937,-15262,649,962,1688,38,-221,6
1665978437.6589506,-822,-4407,-3932,-15261,650,954,1671,-1,-225,6
1665978437.6712563,-838,-4411,-3924,-15261,654,935,1684,-11,-221,12
1665978437.693939,-852,-4414,-3921,-15260,634,913,1682,33,-221,10
1665978437.714265,-867,-4419,-3920,-15258,651,937,1675,34,-225,2
1665978437.7312493,-884,-4423,-3919,-15257,648,945,1679,22,-222,0
1665978437.754007,-899,-4427,-3913,-15256,662,930,1691,13,-221,9
1665978437.774047,-911,-4430,-3909,-15255,641,913,1687,32,-218,14
1665978437.7908392,-924,-4433,-3911,-15253,639,934,1690,51,-219,12
1665978437.813568,-940,-4439,-3910,-15251,654,950,1660,27,-225,1
1665978437.8343127,-957,-4443,-3906,-15249,647,940,1658,8,-221,5
1665978437.8574848,-973,-4446,-3901,-15249,646,922,1679,13,-218,0
1665978437.8736973,-986,-4451,-3900,-15247,653,928,1673,37,-221,12
1665978437.894009,-1001,-4455,-3901,-15244,643,944,1678,43,-221,0
1665978437.9109604,-1015,-4458,-3898,-15243,640,916,1693,36,-220,9
1665978437.9349048,-1031,-4460,-3900,-15241,637,952,1685,40,-218,-2
1665978437.953811,-1049,-4462,-3897,-15240,634,956,1685,15,-224,1
1665978437.970457,-1061,-4469,-3892,-15239,650,916,1680,28,-230,19
1665978437.9937418,-1073,-4474,-3895,-15235,652,928,1688,71,-229,13
1665978438.014281,-1087,-4479,-3901,-15232,645,986,1656,51,-221,11
1665978438.0314343,-1106,-4483,-3901,-15229,642,988,1659,13,-221,-5
1665978438.0541868,-1123,-4487,-3892,-15229,658,928,1658,-11,-217,1
1665978438.073278,-1139,-4491,-3886,-15228,660,963,1732,12,-235,9
1665978438.0904717,-1152,-4501,-3886,-15224,733,1012,1700,28,-222,12
1665978438.113632,-1157,-4515,-3882,-15221,637,920,1608,30,-251,70
1665978438.1334553,-1177,-4511,-3882,-15220,555,933,1637,27,-213,-7
1665978438.152172,-1200,-4515,-3879,-15218,681,994,1686,-10,-227,-32
1665978438.173891,-1215,-4520,-3871,-15217,641,919,1675,7,-230,12
1665978438.1939511,-1231,-4526,-3873,-15214,654,963,1651,41,-227,4
1665978438.2107475,-1246,-4532,-3874,-15211,646,952,1678,46,-233,5
1665978438.233584,-1265,-4536,-3869,-15209,652,979,1672,-3,-228,-6
1665978438.253099,-1284,-4540,-3861,-15208,647,954,1670,-15,-229,1
1665978438.2709289,-1301,-4545,-3853,-15208,649,937,1683,1,-230,5
1665978438.2934268,-1317,-4550,-3853,-15204,651,959,1669,36,-230,1
1665978438.3136873,-1334,-4553,-3849,-15203,638,959,1668,5,-225,4
1665978438.3316534,-1352,-4557,-3840,-15203,653,932,1678,-7,-222,-3
1665978438.3541012,-1368,-4560,-3833,-15202,656,939,1667,5,-218,3
1665978438.3738883,-1385,-4564,-3831,-15200,650,953,1678,23,-225,0
1665978438.390693,-1404,-4568,-3827,-15198,646,975,1675,5,-226,-4
1665978438.4136524,-1422,-4571,-3816,-15198,646,941,1656,-31,-221,6
1665978438.4337761,-1441,-4574,-3805,-15198,643,945,1663,-28,-223,-4
1665978438.456789,-1462,-4577,-3797,-15197,665,951,1685,-14,-221,-15
1665978438.4734602,-1477,-4581,-3793,-15196,645,932,1687,27,-227,8
1665978438.4928713,-1494,-4585,-3790,-15193,633,968,1673,14,-230,1
1665978438.511226,-1513,-4589,-3780,-15193,646,949,1668,-23,-228,2
1665978438.5345726,-1534,-4594,-3768,-15192,651,928,1666,-33,-231,-9
1665978438.5540638,-1553,-4597,-3753,-15193,649,915,1663,-40,-219,-5
1665978438.5714128,-1572,-4599,-3743,-15193,649,939,1670,-28,-215,-4
1665978438.5934925,-1591,-4601,-3734,-15193,642,956,1656,-28,-215,-2
1665978438.61713,-1613,-4600,-3720,-15194,635,943,1669,-55,-210,-11
1665978438.6367438,-1635,-4600,-3706,-15195,645,934,1649,-59,-201,-19
1665978438.6537395,-1655,-4599,-3691,-15197,646,925,1663,-52,-198,-3
1665978438.6785765,-1677,-4598,-3677,-15198,647,947,1677,-60,-201,-17
1665978438.6965213,-1704,-4594,-3657,-15201,642,952,1689,-105,-197,-31
1665978438.7136555,-1732,-4591,-3636,-15204,657,949,1682,-112,-196,-35
1665978438.7365692,-1755,-4585,-3619,-15207,634,942,1701,-79,-188,-22
1665978438.756309,-1771,-4578,-3623,-15206,612,975,1774,52,-192,-5
1665978438.7732048,-1770,-4583,-3659,-15196,645,951,1786,280,-218,27
1665978438.7962222,-1754,-4598,-3713,-15181,679,1037,1847,399,-252,95
1665978438.8157566,-1734,-4628,-3766,-15161,749,1253,1777,317,-290,175
1665978438.8339212,-1719,-4667,-3755,-15153,823,1506,1635,-173,-302,316
1665978438.8557184,-1696,-4726,-3638,-15166,1089,1362,1321,-761,-241,474
1665978438.8761644,-1707,-4734,-3419,-15213,1187,924,1053,-1325,94,287
1665978438.8936067,-1732,-4703,-3240,-15259,1286,637,1092,-1050,339,17
1665978438.9167771,-1686,-4656,-3157,-15296,1212,617,1090,-439,519,230
1665978438.9358854,-1619,-4581,-3091,-15339,1095,787,1338,-361,601,363
1665978438.949379,-1549,-4471,-3008,-15395,813,756,1520,-441,642,433
1665978438.9714422,-1464,-4366,-2928,-15449,740,571,1724,-287,561,477
1665978438.9938715,-1367,-4285,-2892,-15488,728,593,1789,-14,426,502
1665978439.011472,-1250,-4211,-2879,-15520,476,588,1932,170,269,634
1665978439.0318217,-1119,-4169,-2891,-15539,259,556,2042,387,-16,730
1665978439.0540564,-987,-4171,-2919,-15543,271,553,2070,510,-267,746
1665978439.0690658,-865,-4182,-2954,-15540,313,506,1996,550,-302,671
1665978439.0914354,-767,-4186,-2984,-15538,205,657,1976,415,-331,602
1665978439.113944,-680,-4181,-3010,-15539,77,712,2047,363,-372,591
1665978439.1290772,-605,-4177,-3024,-15540,61,767,1996,245,-384,556
1665978439.1515105,-540,-4178,-3000,-15547,117,787,1957,6,-393,563
1665978439.1739793,-498,-4185,-2961,-15554,118,730,1949,-93,-446,451
1665978439.1890554,-466,-4189,-2947,-15557,242,686,1988,61,-400,330
1665978439.2113035,-425,-4197,-2971,-15551,374,768,1980,242,-358,316
1665978439.2341952,-391,-4196,-3031,-15541,434,949,1873,332,-268,253
1665978439.2492268,-362,-4201,-3054,-15536,453,895,1843,147,-288,269
1665978439.271611,-344,-4209,-3034,-15538,588,815,1866,-68,-256,231
1665978439.2941225,-338,-4208,-3023,-15540,705,785,1884,-24,-173,112
1665978439.3089848,-322,-4217,-3052,-15532,738,842,1788,174,-190,127
1665978439.33176,-303,-4226,-3108,-15519,727,914,1794,299,-201,120
1665978439.354086,-299,-4235,-3124,-15514,703,933,1720,40,-196,113
1665978439.3746264,-309,-4242,-3136,-15509,746,852,1670,26,-177,7
1665978439.3916373,-316,-4250,-3135,-15507,677,674,1703,41,-212,12
1665978439.4145994,-311,-4269,-3143,-15500,631,608,1740,150,-290,66
1665978439.4290285,-300,-4291,-3186,-15486,620,679,1717,321,-315,73
1665978439.4517455,-297,-4305,-3225,-15474,677,793,1782,260,-273,41
1665978439.4739766,-305,-4304,-3261,-15466,690,849,1824,207,-205,-12
1665978439.4889064,-309,-4294,-3301,-15460,691,886,1829,220,-152,-2
1665978439.5115683,-305,-4289,-3348,-15452,681,873,1808,284,-166,26
1665978439.5340555,-299,-4292,-3394,-15441,674,852,1759,286,-203,45
1665978439.556683,-296,-4299,-3448,-15427,632,859,1734,322,-244,32
1665978439.5715415,-291,-4313,-3500,-15412,664,852,1730,332,-270,41
1665978439.5942166,-288,-4329,-3544,-15397,680,901,1732,271,-278,56
1665978439.614813,-282,-4348,-3565,-15387,708,873,1710,161,-270,95
1665978439.6318343,-276,-4367,-3591,-15376,687,828,1642,189,-264,79
1665978439.654064,-277,-4376,-3625,-15365,645,848,1673,226,-246,35
1665978439.6744132,-281,-4388,-3654,-15355,686,879,1649,185,-247,22
1665978439.6915956,-292,-4401,-3668,-15348,730,927,1637,63,-229,19
1665978439.7141643,-309,-4406,-3662,-15347,691,888,1661,-34,-216,6
1665978439.7350974,-323,-4408,-3656,-15348,679,852,1698,-6,-211,7
1665978439.751982,-337,-4407,-3665,-15346,653,871,1731,78,-210,-3
1665978439.774102,-349,-4407,-3681,-15342,662,930,1716,90,-216,8
1665978439.7950547,-360,-4414,-3696,-15336,695,953,1724,84,-235,21
1665978439.8114882,-371,-4421,-3705,-15331,692,930,1701,59,-235,23
1665978439.834476,-377,-4429,-3721,-15325,670,898,1696,124,-245,32
1665978439.8547492,-382,-4440,-3744,-15316,673,900,1697,163,-257,38
1665978439.8716946,-388,-4450,-3759,-15309,679,929,1695,107,-254,43
1665978439.8943825,-398,-4461,-3769,-15303,679,920,1662,75,-254,35
1665978439.915175,-406,-4475,-3777,-15297,691,890,1663,77,-265,34
1665978439.9316232,-416,-4487,-3791,-15290,683,903,1659,107,-261,20
1665978439.9540894,-427,-4499,-3802,-15284,697,898,1640,87,-253,15
1665978439.9749131,-440,-4509,-3805,-15279,713,906,1652,39,-243,16
1665978439.9915483,-454,-4518,-3808,-15276,711,912,1668,42,-239,12
1665978440.0146492,-465,-4524,-3818,-15271,686,931,1666,75,-235,16
1665978440.0355585,-480,-4531,-3826,-15266,674,926,1643,60,-240,9
1665978440.0516543,-495,-4535,-3829,-15264,681,946,1649,19,-223,9
1665978440.074064,-509,-4540,-3826,-15263,710,901,1654,14,-214,13
1665978440.0953147,-520,-4544,-3825,-15262,708,895,1696,33,-220,16
1665978440.1116352,-538,-4545,-3829,-15259,675,942,1675,36,-223,-7
1665978440.1341891,-556,-4548,-3829,-15258,678,941,1660,4,-221,0
1665978440.154908,-573,-4555,-3822,-15257,717,907,1663,-13,-229,4
1665978440.171643,-588,-4560,-3821,-15255,707,933,1681,16,-232,11
1665978440.1942139,-602,-4564,-3825,-15252,674,965,1670,33,-229,21
1665978440.214485,-619,-4568,-3824,-15251,676,940,1683,13,-235,9
1665978440.2316852,-632,-4577,-3823,-15248,706,908,1650,23,-240,14
1665978440.2545059,-643,-4583,-3829,-15244,691,921,1658,66,-232,20
1665978440.2745135,-657,-4588,-3824,-15243,683,920,1655,-3,-225,25
1665978440.2917154,-672,-4595,-3820,-15241,712,921,1628,-2,-227,15
1665978440.314673,-688,-4604,-3824,-15237,736,931,1662,43,-234,-11
1665978440.33531,-703,-4606,-3829,-15234,683,939,1657,45,-219,3
1665978440.3516452,-717,-4611,-3834,-15231,683,941,1647,46,-229,13
1665978440.3742335,-731,-4616,-3834,-15229,702,928,1649,29,-221,13
1665978440.3955798,-747,-4617,-3829,-15229,665,908,1661,-1,-220,7
1665978440.4116657,-766,-4618,-3824,-15229,670,930,1670,-5,-226,-4
1665978440.434252,-781,-4625,-3817,-15228,711,905,1665,-5,-230,11
1665978440.4554727,-795,-4633,-3811,-15226,710,926,1649,-2,-234,24
1665978440.4719822,-812,-4637,-3806,-15226,697,928,1671,-6,-228,9
1665978440.4943068,-830,-4641,-3796,-15226,686,921,1669,-26,-233,6
1665978440.5154688,-844,-4646,-3792,-15224,691,919,1677,13,-235,16
1665978440.538287,-859,-4653,-3793,-15221,696,940,1658,28,-240,12
1665978440.554242,-877,-4657,-3794,-15219,686,942,1678,27,-239,-4
1665978440.574207,-893,-4663,-3794,-15216,684,924,1663,27,-237,10
1665978440.5978713,-905,-4669,-3796,-15213,689,926,1666,47,-239,23
1665978440.6143253,-918,-4675,-3797,-15210,717,926,1662,43,-225,11
1665978440.634679,-926,-4679,-3793,-15209,704,877,1660,36,-211,31
1665978440.6577623,-936,-4684,-3787,-15209,701,911,1655,10,-219,36
1665978440.6742647,-953,-4686,-3777,-15209,691,957,1642,-48,-214,24
1665978440.6968412,-973,-4684,-3765,-15212,681,938,1672,-52,-204,1
1665978440.7183657,-991,-4684,-3755,-15213,697,901,1700,-13,-218,-4
1665978440.734342,-1007,-4689,-3754,-15211,691,937,1696,23,-238,8
1665978440.7622416,-1024,-4693,-3747,-15210,685,939,1674,-13,-239,12
1665978440.7771084,-1040,-4701,-3735,-15210,698,892,1670,-23,-244,15
1665978440.794292,-1051,-4706,-3727,-15209,701,888,1653,1,-226,31
1665978440.8148754,-1064,-4713,-3723,-15207,702,918,1653,15,-233,27
1665978440.8382573,-1079,-4719,-3725,-15204,705,962,1670,25,-233,9
1665978440.8542898,-1098,-4724,-3723,-15201,696,941,1645,-1,-233,-2
1665978440.8742986,-1117,-4728,-3715,-15200,691,917,1643,-21,-231,-3
1665978440.8975546,-1135,-4732,-3708,-15200,697,919,1660,-12,-225,3
1665978440.9143705,-1150,-4733,-3705,-15199,695,902,1682,25,-213,3
1665978440.936338,-1167,-4734,-3707,-15197,688,927,1703,43,-227,-9
1665978440.957734,-1181,-4737,-3706,-15195,710,915,1692,38,-223,3
1665978440.9743195,-1197,-4739,-3701,-15194,671,921,1673,0,-229,12
1665978440.9968255,-1215,-4745,-3693,-15193,694,924,1660,-18,-237,7
1665978441.0184193,-1233,-4751,-3686,-15192,713,902,1661,-4,-232,-4
1665978441.0343795,-1247,-4757,-3686,-15188,696,907,1657,40,-236,8
1665978441.0567858,-1263,-4765,-3686,-15184,700,937,1671,32,-253,4
1665978441.0783498,-1282,-4772,-3678,-15183,706,930,1647,-27,-239,4
1665978441.0942476,-1300,-4778,-3667,-15182,697,905,1651,-25,-239,8
1665978441.1171823,-1317,-4783,-3662,-15180,691,901,1664,10,-238,-3
1665978441.1379895,-1335,-4789,-3659,-15177,703,909,1671,19,-240,-7
1665978441.1543534,-1353,-4794,-3654,-15176,692,900,1689,15,-247,-6
1665978441.1767952,-1370,-4798,-3647,-15174,701,911,1709,9,-242,1
1665978441.1983232,-1386,-4804,-3640,-15173,693,911,1674,1,-244,15
1665978441.2143161,-1401,-4813,-3638,-15169,697,930,1649,14,-250,15
1665978441.2367015,-1419,-4820,-3637,-15165,701,940,1662,21,-248,-3
1665978441.2573855,-1436,-4830,-3637,-15161,713,951,1659,24,-256,8
1665978441.2744112,-1447,-4841,-3637,-15156,712,914,1652,46,-255,27
1665978441.2971973,-1460,-4850,-3635,-15152,685,914,1641,28,-256,27
1665978441.3184102,-1476,-4858,-3632,-15149,702,916,1653,25,-250,7
1665978441.3345494,-1492,-4865,-3628,-15146,718,907,1666,20,-243,1
1665978441.3568661,-1508,-4869,-3625,-15144,707,909,1677,29,-235,3
1665978441.3774912,-1521,-4873,-3622,-15142,694,908,1661,25,-230,15
1665978441.3942394,-1535,-4877,-3620,-15140,707,937,1662,26,-227,18
1665978441.4168417,-1551,-4882,-3616,-15138,722,933,1662,4,-226,5
1665978441.4393613,-1565,-4885,-3612,-15136,710,903,1679,27,-227,6
1665978441.4598143,-1578,-4888,-3612,-15134,712,914,1673,46,-219,9
1665978441.4768472,-1593,-4889,-3608,-15133,695,919,1667,17,-217,10
1665978441.5051944,-1606,-4892,-3603,-15132,707,901,1654,19,-219,14
1665978441.5205429,-1621,-4895,-3598,-15130,712,909,1667,13,-220,5
1665978441.5368183,-1638,-4897,-3591,-15130,708,904,1669,1,-222,-2
1665978441.556695,-1654,-4900,-3581,-15129,701,911,1671,-10,-227,12
1665978441.5802805,-1670,-4905,-3579,-15126,699,932,1662,21,-237,11
1665978441.5971844,-1688,-4909,-3577,-15123,694,946,1665,13,-239,-1
1665978441.6172028,-1704,-4915,-3575,-15120,711,922,1658,26,-235,1
1665978441.6401362,-1720,-4917,-3572,-15118,706,923,1656,14,-219,0
1665978441.6569011,-1734,-4920,-3569,-15117,695,907,1665,33,-225,12
1665978441.6769903,-1748,-4922,-3571,-15114,690,927,1678,48,-227,10
1665978441.7008715,-1765,-4929,-3577,-15108,701,976,1648,49,-245,-3
1665978441.717012,-1779,-4939,-3574,-15104,729,929,1643,24,-245,12
1665978441.73784,-1794,-4946,-3566,-15102,707,908,1652,4,-244,15
1665978441.7606547,-1809,-4950,-3562,-15100,697,916,1652,18,-232,11
1665978441.7766433,-1825,-4956,-3558,-15097,718,925,1652,14,-233,7
1665978441.7957165,-1841,-4960,-3553,-15095,705,936,1658,5,-232,9
1665978441.8184028,-1858,-4964,-3546,-15093,703,922,1650,-2,-234,3
1665978441.8364232,-1875,-4967,-3538,-15091,713,921,1675,0,-231,5
1665978441.8536372,-1891,-4969,-3533,-15090,695,899,1664,14,-222,-2
1665978441.877189,-1908,-4971,-3527,-15089,703,920,1672,7,-230,5
1665978441.8965616,-1923,-4975,-3522,-15087,707,935,1665,10,-230,10
1665978441.914047,-1936,-4979,-3519,-15084,703,930,1656,26,-229,20
1665978441.9365993,-1949,-4983,-3517,-15082,700,916,1655,34,-224,18
1665978441.9564574,-1963,-4987,-3513,-15080,713,909,1660,22,-225,9
1665978441.9735208,-1976,-4992,-3507,-15078,714,910,1650,16,-227,15
1665978441.9969532,-1991,-4995,-3506,-15075,693,928,1635,28,-224,10
1665978442.0165293,-2007,-4999,-3504,-15072,724,944,1660,16,-223,2
1665978442.0343359,-2023,-5001,-3498,-15071,711,928,1668,6,-220,5
1665978442.0571144,-2040,-5002,-3490,-15070,712,932,1653,-12,-210,6
1665978442.0764902,-2055,-5003,-3482,-15069,715,927,1660,-5,-215,11
1665978442.1025884,-2069,-5004,-3479,-15068,705,928,1682,25,-215,12
1665978442.1177437,-2084,-5006,-3480,-15065,685,927,1670,42,-225,3
1665978442.1364648,-2096,-5009,-3483,-15061,702,937,1667,59,-220,12
1665978442.1538773,-2108,-5013,-3482,-15059,713,920,1675,44,-224,18
1665978442.1772213,-2121,-5019,-3479,-15056,724,901,1675,45,-237,11
1665978442.2005734,-2136,-5027,-3477,-15051,709,916,1670,42,-255,2
1665978442.2143579,-2155,-5035,-3472,-15047,701,947,1649,3,-257,-1
1665978442.236825,-2173,-5042,-3463,-15044,719,926,1652,-9,-248,2
1665978442.2565377,-2189,-5049,-3457,-15041,725,917,1630,10,-235,5
1665978442.2738614,-2205,-5055,-3457,-15036,709,930,1647,34,-237,0
1665978442.2973368,-2222,-5061,-3456,-15032,714,938,1649,30,-237,-6
1665978442.319691,-2239,-5066,-3453,-15028,730,929,1656,27,-233,-8
1665978442.334847,-2255,-5068,-3449,-15027,704,926,1662,18,-220,4
1665978442.3564653,-2271,-5072,-3444,-15024,703,924,1648,15,-232,5
1665978442.3764396,-2287,-5074,-3443,-15021,703,918,1686,45,-231,-5
1665978442.3939044,-2307,-5077,-3444,-15017,695,977,1646,17,-231,-13
1665978442.4247735,-2325,-5085,-3434,-15014,738,933,1643,-14,-240,4
1665978442.4396546,-2343,-5088,-3425,-15012,717,918,1651,-8,-231,-2
1665978442.4538648,-2360,-5092,-3421,-15009,710,929,1662,18,-230,-5
1665978442.4760637,-2372,-5096,-3423,-15005,718,938,1645,50,-220,11
1665978442.5000577,-2388,-5099,-3417,-15003,708,932,1639,8,-221,7
1665978442.5140467,-2405,-5101,-3410,-15001,710,931,1654,-1,-222,1
1665978442.5364006,-2421,-5104,-3404,-14999,714,938,1663,3,-226,8
1665978442.5594602,-2437,-5108,-3399,-14996,711,936,1654,11,-229,7
1665978442.5736468,-2451,-5112,-3395,-14993,713,925,1669,29,-235,12
1665978442.596209,-2467,-5117,-3391,-14990,714,942,1653,19,-232,7
1665978442.6194146,-2484,-5120,-3384,-14987,704,928,1650,0,-231,4
1665978442.6342287,-2502,-5123,-3375,-14986,700,915,1646,-9,-231,1
1665978442.6566129,-2517,-5127,-3371,-14982,703,918,1648,27,-228,3
1665978442.6796322,-2534,-5130,-3368,-14979,712,949,1659,14,-228,0
1665978442.6938722,-2550,-5135,-3362,-14976,722,928,1649,10,-231,5
1665978442.716552,-2564,-5139,-3359,-14973,716,930,1649,29,-226,8
1665978442.7427905,-2580,-5140,-3356,-14971,697,929,1650,21,-216,2
1665978442.75964,-2598,-5141,-3350,-14969,703,921,1663,6,-224,-6
1665978442.7792995,-2616,-5145,-3344,-14966,719,948,1652,0,-225,-3
1665978442.8035784,-2634,-5148,-3335,-14963,712,919,1639,-13,-225,-4
1665978442.819724,-2652,-5148,-3327,-14962,701,935,1654,-6,-218,2
1665978442.8420992,-2666,-5150,-3325,-14959,707,960,1671,22,-217,11
1665978442.8630757,-2682,-5152,-3324,-14956,701,947,1655,25,-223,7
1665978442.8792317,-2697,-5157,-3320,-14952,711,925,1653,24,-234,2
1665978442.8999038,-2712,-5161,-3316,-14949,721,932,1654,25,-224,8
1665978442.9234562,-2727,-5162,-3309,-14947,701,932,1659,3,-219,10
1665978442.9396348,-2743,-5166,-3303,-14945,707,930,1662,9,-231,5
1665978442.9595342,-2758,-5171,-3300,-14940,720,931,1650,33,-232,4
1665978442.9836493,-2773,-5175,-3299,-14937,697,936,1630,29,-223,8
1665978442.9997282,-2789,-5176,-3291,-14935,695,929,1640,-9,-216,8
1665978443.0201986,-2805,-5179,-3285,-14933,716,925,1644,7,-218,4
1665978443.04285,-2821,-5180,-3280,-14930,711,941,1656,11,-214,3
1665978443.0596836,-2835,-5183,-3276,-14927,709,920,1651,27,-219,5
1665978443.0796006,-2852,-5183,-3272,-14925,701,960,1669,6,-219,5
1665978443.103526,-2871,-5184,-3265,-14923,709,936,1661,-3,-219,-8
1665978443.1196418,-2889,-5189,-3257,-14919,706,923,1653,-1,-239,-6
1665978443.1405323,-2906,-5194,-3251,-14916,721,917,1652,11,-231,-3
1665978443.1629205,-2921,-5195,-3248,-14913,694,948,1647,18,-215,7
1665978443.1795464,-2936,-5196,-3244,-14910,701,952,1650,5,-212,12
1665978443.1998408,-2954,-5198,-3239,-14907,718,924,1654,13,-215,-11
1665978443.2226646,-2969,-5201,-3233,-14905,716,919,1662,20,-223,2
1665978443.2395804,-2982,-5206,-3230,-14901,708,935,1646,28,-227,17
1665978443.2594702,-2996,-5209,-3232,-14896,695,972,1661,42,-229,12
1665978443.2827375,-3011,-5217,-3229,-14892,708,947,1659,28,-247,10
1665978443.299769,-3024,-5224,-3228,-14886,700,943,1649,44,-245,20
1665978443.3195937,-3034,-5239,-3244,-14876,693,1008,1730,149,-302,25
1665978443.3428154,-3044,-5260,-3283,-14858,716,1047,1622,242,-281,-15
1665978443.3654664,-3069,-5273,-3270,-14851,738,924,1615,-27,-284,-35
1665978443.37917,-3086,-5289,-3241,-14848,742,828,1633,-52,-302,19
1665978443.403598,-3094,-5305,-3245,-14840,690,867,1643,127,-293,20
1665978443.4254363,-3094,-5326,-3270,-14827,713,994,1644,210,-287,53
1665978443.447888,-3099,-5347,-3298,-14812,725,1042,1626,204,-292,34
1665978443.461512,-3112,-5365,-3294,-14803,741,953,1594,38,-291,21
1665978443.4867866,-3124,-5381,-3284,-14797,723,889,1623,42,-294,26
1665978443.4994895,-3130,-5396,-3295,-14788,728,934,1618,146,-272,27
1665978443.5226564,-3141,-5409,-3305,-14779,727,1001,1633,110,-264,21
1665978443.5447478,-3159,-5415,-3302,-14774,707,986,1618,17,-256,4
1665978443.5587447,-3178,-5419,-3290,-14771,716,940,1624,-10,-248,7
1665978443.5833876,-3192,-5431,-3288,-14764,746,982,1620,45,-268,13
1665978443.6056206,-3210,-5441,-3283,-14757,755,987,1603,6,-254,1
1665978443.6210003,-3233,-5445,-3268,-14754,741,950,1631,-36,-249,-13
1665978443.6423314,-3246,-5453,-3264,-14749,751,955,1621,41,-244,12
1665978443.6652906,-3258,-5464,-3267,-14742,756,983,1595,70,-248,17
1665978443.6791952,-3273,-5471,-3266,-14736,743,992,1612,31,-240,9
1665978443.7032192,-3291,-5475,-3258,-14732,731,945,1614,9,-241,0
1665978443.725425,-3304,-5481,-3252,-14728,755,940,1636,41,-235,13
1665978443.7400656,-3317,-5487,-3255,-14723,736,973,1627,67,-236,11
1665978443.7621522,-3332,-5492,-3258,-14717,729,1030,1630,48,-240,12
1665978443.7857792,-3355,-5494,-3245,-14714,724,1011,1600,-58,-236,1
1665978443.799481,-3371,-5501,-3230,-14711,754,935,1604,-19,-249,18
1665978443.8225353,-3383,-5513,-3225,-14704,773,958,1595,39,-253,16
1665978443.845777,-3395,-5521,-3226,-14699,748,1000,1627,53,-247,26
1665978443.8622043,-3411,-5525,-3222,-14694,734,1005,1610,12,-234,20
1665978443.8821409,-3427,-5529,-3210,-14691,727,958,1591,-18,-237,18
1665978443.913233,-3443,-5535,-3202,-14688,737,942,1614,15,-244,9
1665978443.9245155,-3459,-5541,-3202,-14682,749,978,1605,49,-234,-2
1665978443.9419093,-3476,-5545,-3193,-14678,774,984,1617,-10,-227,7
1665978443.965272,-3493,-5545,-3179,-14677,733,962,1612,-36,-224,16
1665978443.982461,-3508,-5547,-3168,-14675,748,955,1616,-5,-222,15
1665978444.0042074,-3523,-5548,-3157,-14673,755,989,1617,-26,-219,27
1665978444.0251284,-3539,-5548,-3144,-14672,753,999,1607,-45,-206,28
1665978444.0420687,-3557,-5547,-3128,-14672,745,976,1594,-59,-207,18
1665978444.0869112,-3574,-5546,-3122,-14669,761,970,1624,2,-201,-4
1665978444.0979924,-3589,-5547,-3127,-14664,738,993,1637,60,-209,-2
1665978444.1029031,-3604,-5551,-3134,-14657,740,1032,1647,70,-232,4
1665978444.126857,-3622,-5558,-3128,-14652,756,979,1625,10,-249,-2
1665978444.1475935,-3639,-5563,-3116,-14648,739,912,1637,9,-254,2
1665978444.1624236,-3656,-5567,-3114,-14643,699,931,1621,53,-249,-9
1665978444.1792202,-3673,-5577,-3111,-14635,757,978,1610,31,-258,0
1665978444.2033615,-3689,-5586,-3106,-14629,761,984,1600,16,-250,11
1665978444.22983,-3704,-5591,-3102,-14624,738,966,1582,27,-233,10
1665978444.2425518,-3717,-5599,-3100,-14618,753,974,1589,36,-235,13
1665978444.2687504,-3735,-5605,-3098,-14612,769,978,1619,35,-238,-13
1665978444.2823613,-3752,-5610,-3096,-14606,758,966,1625,44,-234,-14
1665978444.3035135,-3767,-5614,-3092,-14601,749,978,1626,25,-235,9
1665978444.327862,-3783,-5617,-3085,-14597,751,971,1623,14,-232,12
1665978444.3478758,-3799,-5619,-3082,-14593,727,984,1628,28,-229,7
1665978444.36281,-3814,-5624,-3084,-14587,732,1014,1599,40,-235,9
1665978444.3855603,-3829,-5633,-3080,-14580,777,1006,1601,22,-242,12
1665978444.4120672,-3844,-5637,-3070,-14577,761,945,1614,12,-233,9
1665978444.4255533,-3858,-5641,-3065,-14573,748,955,1617,32,-232,14
1665978444.4452338,-3871,-5648,-3065,-14567,750,972,1607,60,-236,10
1665978444.4688547,-3889,-5655,-3062,-14560,757,985,1612,32,-246,-9
1665978444.4827874,-3904,-5660,-3058,-14555,754,983,1608,24,-236,12
1665978444.5069509,-3916,-5667,-3055,-14549,748,992,1596,35,-238,24
1665978444.5283358,-3930,-5673,-3056,-14543,746,1017,1616,51,-239,15
1665978444.54213,-3942,-5679,-3055,-14537,752,983,1613,52,-236,18
1665978444.5648115,-3955,-5686,-3053,-14532,752,991,1604,40,-239,20
1665978444.5875883,-3970,-5691,-3045,-14527,746,973,1578,7,-235,15
1665978444.601858,-3987,-5695,-3034,-14523,759,957,1594,-4,-235,7
1665978444.6249988,-4004,-5699,-3029,-14518,756,968,1595,17,-228,-4
1665978444.6478558,-4020,-5704,-3028,-14512,763,1005,1592,33,-227,0
1665978444.6620011,-4035,-5707,-3024,-14507,757,1009,1603,16,-225,14
1665978444.6852849,-4054,-5709,-3014,-14504,741,996,1604,-17,-231,9
1665978444.7079465,-4071,-5710,-3002,-14501,751,948,1621,-8,-231,6
1665978444.7224793,-4087,-5712,-2990,-14498,755,958,1604,-11,-227,12
1665978444.7444034,-4100,-5715,-2978,-14495,771,969,1610,-5,-225,25
1665978444.7682822,-4116,-5717,-2968,-14492,756,1005,1596,-20,-218,26
1665978444.7821035,-4133,-5716,-2954,-14491,752,985,1609,-45,-213,21
1665978444.805216,-4150,-5713,-2932,-14491,763,967,1586,-85,-204,24
1665978444.8362682,-4167,-5712,-2925,-14489,756,989,1593,-12,-198,9
1665978444.8474917,-4183,-5709,-2918,-14486,761,985,1606,-7,-189,3
1665978444.8645267,-4198,-5707,-2913,-14484,763,962,1636,21,-199,2
1665978444.8892825,-4213,-5710,-2911,-14479,749,988,1633,32,-229,8
1665978444.9092116,-4229,-5715,-2912,-14472,732,991,1628,53,-242,1
1665978444.9258215,-4245,-5722,-2909,-14465,748,971,1610,40,-251,0
1665978444.9481466,-4261,-5730,-2908,-14457,756,968,1596,50,-246,-9
1665978444.9647071,-4279,-5735,-2906,-14450,757,969,1606,34,-232,-18
1665978444.9933043,-4298,-5737,-2900,-14445,753,966,1622,14,-229,-14
1665978445.0086179,-4317,-5740,-2895,-14440,757,998,1614,6,-231,-8
1665978445.0248394,-4334,-5742,-2887,-14435,748,970,1607,6,-228,6
1665978445.0517251,-4351,-5748,-2882,-14429,745,976,1593,22,-238,-1
1665978445.0685534,-4366,-5756,-2884,-14421,758,997,1606,59,-243,-2
1665978445.0851676,-4379,-5763,-2885,-14414,764,990,1598,58,-235,8
1665978445.1135523,-4394,-5767,-2876,-14409,766,982,1605,1,-231,12
1665978445.1291828,-4410,-5770,-2867,-14405,755,949,1612,13,-230,4
1665978445.1448286,-4425,-5774,-2862,-14399,746,971,1608,29,-236,8
1665978445.1646318,-4440,-5780,-2857,-14393,764,997,1594,15,-235,11
1665978445.1893675,-4458,-5782,-2850,-14389,753,983,1596,3,-223,1
1665978445.2049363,-4476,-5785,-2839,-14384,752,984,1605,-20,-233,4
1665978445.225426,-4493,-5789,-2834,-14378,756,985,1600,17,-235,2
1665978445.2473178,-4507,-5795,-2830,-14372,765,995,1600,27,-232,12
1665978445.2717502,-4523,-5797,-2825,-14367,753,1005,1604,11,-224,9
1665978445.2851546,-4539,-5800,-2816,-14363,753,973,1595,-4,-226,11
1665978445.3076289,-4553,-5804,-2808,-14358,754,967,1599,11,-232,18
1665978445.3312967,-4568,-5808,-2799,-14354,764,957,1619,18,-234,8
1665978445.3446527,-4582,-5813,-2795,-14348,763,991,1614,33,-236,13
1665978445.3680553,-4596,-5820,-2797,-14340,756,1008,1590,49,-232,9
1665978445.3921807,-4612,-5824,-2785,-14336,764,987,1586,-15,-234,19
1665978445.4082496,-4629,-5828,-2772,-14331,770,961,1597,-18,-236,7
1665978445.4368339,-4645,-5831,-2766,-14326,756,980,1602,14,-229,5
1665978445.4508011,-4660,-5834,-2762,-14321,742,990,1596,19,-223,11
1665978445.4645069,-4676,-5836,-2754,-14316,766,986,1604,-2,-222,8
1665978445.4886208,-4691,-5837,-2743,-14313,758,972,1606,-8,-224,18
1665978445.5109034,-4706,-5839,-2734,-14309,757,971,1593,-1,-220,17
1665978445.5263143,-4721,-5839,-2727,-14305,752,971,1623,15,-218,8
1665978445.5474458,-4736,-5839,-2720,-14302,746,969,1610,7,-211,12
1665978445.5709174,-4749,-5840,-2716,-14298,754,997,1595,15,-207,23
1665978445.5845532,-4765,-5840,-2706,-14294,762,1009,1599,-26,-210,16
1665978445.607307,-4785,-5837,-2696,-14291,758,1007,1623,-33,-208,2
1665978445.6304445,-4803,-5837,-2691,-14286,760,987,1610,5,-215,-10
1665978445.644402,-4819,-5839,-2687,-14281,751,966,1593,22,-213,-2
1665978445.6670723,-4833,-5838,-2680,-14277,754,972,1606,5,-204,12
1665978445.6907346,-4847,-5838,-2676,-14273,746,971,1616,29,-209,12
1665978445.7045588,-4862,-5839,-2670,-14269,746,991,1615,6,-219,13
1665978445.7276394,-4876,-5842,-2663,-14264,762,985,1607,12,-219,18
1665978445.7506847,-4889,-5845,-2657,-14259,767,990,1611,15,-223,17
1665978445.7672584,-4904,-5845,-2652,-14255,743,983,1618,11,-214,12
1665978445.787148,-4918,-5847,-2641,-14252,741,962,1597,-5,-224,23
1665978445.8103113,-4931,-5852,-2636,-14246,756,968,1594,25,-226,18
1665978445.8274708,-4947,-5855,-2632,-14240,755,971,1583,20,-220,-3
1665978445.8471231,-4964,-5858,-2625,-14234,767,973,1602,5,-223,-8
1665978445.8713634,-4980,-5861,-2622,-14228,753,977,1632,36,-232,-4
1665978445.8874192,-4998,-5865,-2620,-14220,738,1004,1606,26,-237,-6
1665978445.9075725,-5017,-5869,-2616,-14213,749,1001,1622,15,-239,-8
1665978445.9305303,-5037,-5872,-2608,-14206,760,985,1607,-3,-234,-16
1665978445.9472053,-5055,-5878,-2599,-14199,761,962,1602,5,-248,-5
1665978445.9678717,-5066,-5888,-2597,-14191,776,960,1608,66,-243,9
1665978445.9910343,-5079,-5896,-2599,-14183,723,972,1588,73,-246,10
1665978446.0074377,-5094,-5903,-2597,-14175,758,995,1613,41,-249,0
1665978446.0275397,-5111,-5908,-2591,-14167,749,956,1600,25,-242,-7
1665978446.0503545,-5128,-5913,-2584,-14161,755,967,1610,22,-239,-1
1665978446.0672612,-5144,-5917,-2578,-14154,756,972,1606,23,-236,0
1665978446.08715,-5159,-5924,-2575,-14147,753,992,1593,32,-244,7
1665978446.110337,-5178,-5929,-2567,-14139,760,996,1604,5,-249,-11
1665978446.1273677,-5197,-5935,-2558,-14131,765,989,1594,-3,-247,-3
1665978446.147451,-5213,-5942,-2554,-14123,759,984,1593,27,-243,-3
1665978446.1696367,-5230,-5946,-2548,-14116,757,982,1600,20,-238,-2
1665978446.1879287,-5245,-5953,-2545,-14108,748,984,1598,40,-245,3
1665978446.2073765,-5262,-5959,-2544,-14100,755,1002,1610,41,-245,-5
1665978446.229849,-5280,-5966,-2537,-14091,759,986,1593,18,-254,-7
1665978446.2538114,-5296,-5972,-2528,-14084,774,969,1615,21,-252,5
1665978446.2670827,-5308,-5979,-2526,-14077,753,970,1602,58,-243,12
1665978446.2901044,-5321,-5986,-2524,-14069,751,996,1602,49,-244,12
1665978446.3137424,-5337,-5994,-2524,-14060,753,1021,1584,40,-248,3
1665978446.3272798,-5356,-6001,-2516,-14051,767,985,1583,11,-253,-10
1665978446.3500688,-5375,-6007,-2507,-14043,774,983,1578,1,-243,-10
1665978446.3733535,-5391,-6009,-2498,-14038,757,965,1597,8,-231,1
1665978446.3880477,-5405,-6012,-2491,-14032,750,962,1616,35,-241,13
1665978446.4102523,-5420,-6022,-2491,-14022,774,1018,1604,57,-255,-5
1665978446.4333785,-5437,-6029,-2485,-14014,778,1012,1583,12,-247,5
1665978446.4470189,-5455,-6032,-2473,-14007,765,988,1581,-15,-237,2
1665978446.4693868,-5472,-6036,-2462,-14001,772,964,1589,1,-240,-1
1665978446.4935033,-5488,-6041,-2460,-13993,758,990,1585,37,-232,-2
1665978446.5070536,-5504,-6045,-2459,-13985,754,1020,1572,28,-225,-1
1665978446.530145,-5522,-6045,-2449,-13979,765,982,1587,-11,-226,-1
1665978446.553334,-5538,-6049,-2441,-13973,766,978,1598,19,-235,2
1665978446.5672674,-5553,-6054,-2442,-13965,758,994,1597,58,-233,-6
1665978446.5903938,-5570,-6057,-2434,-13958,762,985,1589,13,-235,1
1665978446.6131241,-5586,-6061,-2424,-13952,772,974,1580,-3,-235,4
1665978446.6272433,-5602,-6065,-2417,-13945,778,1001,1577,9,-230,5
1665978446.649463,-5620,-6067,-2414,-13937,755,1028,1577,11,-222,-4
1665978446.673959,-5637,-6068,-2402,-13932,770,975,1595,-12,-225,5
1665978446.6876743,-5652,-6069,-2394,-13926,758,977,1603,16,-228,10
1665978446.7100198,-5669,-6071,-2388,-13920,745,998,1587,7,-227,8
1665978446.7330472,-5685,-6070,-2378,-13915,758,1005,1599,-10,-220,14
1665978446.7498634,-5699,-6072,-2368,-13911,768,993,1573,-9,-222,22
1665978446.7697215,-5714,-6077,-2359,-13904,782,989,1596,11,-232,11
1665978446.7933006,-5728,-6080,-2357,-13897,755,1003,1600,37,-231,10
1665978446.8100817,-5744,-6083,-2350,-13890,756,1002,1584,7,-231,8
1665978446.8304453,-5759,-6084,-2337,-13886,763,969,1593,-15,-229,17
1665978446.8536727,-5775,-6083,-2323,-13882,763,969,1586,-24,-219,15
1665978446.870074,-5788,-6083,-2314,-13878,768,966,1581,5,-210,19
1665978446.890705,-5797,-6086,-2308,-13874,777,996,1577,20,-207,39
1665978446.913914,-5811,-6084,-2301,-13870,762,1016,1597,-5,-200,26
1665978446.9302678,-5827,-6080,-2291,-13867,761,983,1608,-13,-201,11
1665978446.9501693,-5842,-6077,-2284,-13863,766,979,1621,10,-201,9
1665978446.9740503,-5854,-6076,-2279,-13859,757,1011,1615,14,-206,26
1665978446.9901927,-5869,-6072,-2267,-13857,753,1008,1612,-31,-206,32
1665978447.0097382,-5884,-6068,-2254,-13854,764,979,1610,-30,-201,20
1665978447.0334196,-5896,-6066,-2248,-13851,764,967,1599,15,-194,23
1665978447.0558052,-5904,-6062,-2242,-13850,749,971,1600,18,-179,44
1665978447.069625,-5915,-6057,-2235,-13849,767,999,1598,-5,-180,34
1665978447.101213,-5930,-6053,-2231,-13845,762,1009,1617,2,-183,12
1665978447.1118276,-5946,-6046,-2226,-13842,755,1013,1611,-13,-178,7
1665978447.129867,-5961,-6042,-2219,-13838,759,990,1602,-9,-187,12
1665978447.1528778,-5980,-6036,-2210,-13834,747,957,1589,-22,-187,-14
1665978447.17562,-5996,-6033,-2199,-13830,758,949,1595,-13,-195,2
1665978447.1903222,-6011,-6031,-2193,-13826,760,970,1615,11,-204,7
1665978447.2131095,-6027,-6031,-2189,-13819,765,979,1609,18,-203,-8
1665978447.2357574,-6044,-6032,-2184,-13812,750,986,1594,7,-212,-8
1665978447.249844,-6061,-6032,-2179,-13806,751,991,1594,3,-212,-4
1665978447.2731898,-6078,-6032,-2172,-13799,735,980,1620,4,-223,2
1665978447.2953436,-6096,-6033,-2162,-13792,752,978,1617,-9,-233,-4
1665978447.3050327,-6114,-6036,-2153,-13785,750,979,1614,-5,-236,-2
1665978447.3194168,-6129,-6039,-2145,-13778,752,968,1606,12,-230,7
1665978447.3419316,-6145,-6039,-2137,-13772,746,973,1596,-4,-218,4
1665978447.3651705,-6162,-6039,-2128,-13766,746,988,1602,-13,-215,2
1665978447.3793883,-6180,-6039,-2121,-13759,744,987,1587,-12,-214,-3
1665978447.4018784,-6197,-6039,-2113,-13752,754,970,1606,1,-219,-6
1665978447.4250288,-6211,-6036,-2104,-13748,743,961,1617,-5,-202,15
1665978447.4393857,-6228,-6027,-2096,-13746,704,981,1608,-28,-177,16
1665978447.4618876,-6241,-6024,-2092,-13742,742,977,1596,7,-191,12
1665978447.485708,-6256,-6025,-2090,-13735,772,992,1634,34,-202,-4
1665978447.5336797,-6266,-6036,-2092,-13726,770,986,1638,87,-246,5
1665978447.5519552,-6279,-6047,-2091,-13715,734,1005,1653,66,-280,12
1665978447.5668292,-6297,-6052,-2080,-13706,706,952,1635,10,-275,6
1665978447.585809,-6312,-6057,-2069,-13698,700,937,1612,16,-270,15
1665978447.5999382,-6327,-6068,-2067,-13687,737,955,1592,58,-268,-12
1665978447.615831,-6340,-6083,-2064,-13675,784,971,1577,61,-260,-4
1665978447.6220016,-6352,-6092,-2058,-13666,781,983,1580,32,-245,11
1665978447.6513824,-6365,-6096,-2054,-13659,761,977,1606,36,-224,11
1665978447.6678135,-6380,-6101,-2047,-13651,747,977,1606,16,-241,5
1665978447.6884563,-6397,-6108,-2041,-13641,754,984,1618,32,-257,-7
1665978447.7018714,-6412,-6116,-2037,-13631,749,996,1608,35,-258,4
1665978447.7252288,-6426,-6123,-2033,-13621,748,989,1610,43,-254,5
1665978447.7454343,-6438,-6127,-2028,-13615,742,980,1613,36,-236,23
1665978447.7639778,-6449,-6130,-2023,-13609,746,987,1619,33,-230,29
1665978447.7858987,-6460,-6136,-2018,-13602,767,992,1588,33,-226,18
1665978447.799523,-6471,-6143,-2012,-13594,780,977,1584,33,-235,21
1665978447.8217986,-6485,-6148,-2002,-13587,754,949,1598,19,-242,6
1665978447.8452964,-6504,-6146,-1989,-13580,754,957,1620,-18,-234,-5
1665978447.8595147,-6528,-6142,-1968,-13574,748,948,1610,-70,-236,-15
1665978447.8821607,-6555,-6135,-1946,-13567,742,981,1625,-103,-238,-21
1665978447.9055824,-6577,-6132,-1924,-13561,747,941,1591,-76,-238,0
1665978447.926493,-6594,-6134,-1913,-13553,783,1046,1596,-43,-222,14
1665978447.9419851,-6607,-6137,-1915,-13545,776,1045,1588,30,-201,12
1665978447.9734213,-6620,-6138,-1907,-13540,758,1002,1578,-12,-207,27
1665978447.9879014,-6631,-6137,-1901,-13536,748,950,1618,29,-212,23
1665978448.0017703,-6641,-6144,-1898,-13528,748,945,1636,70,-247,17
1665978448.0356486,-6656,-6151,-1897,-13518,764,996,1649,59,-252,-13
1665978448.0477824,-6679,-6156,-1887,-13505,771,987,1557,-29,-244,-34
1665978448.0622065,-6702,-6154,-1869,-13497,754,943,1539,-71,-226,-20
1665978448.084585,-6725,-6147,-1837,-13494,756,913,1538,-137,-216,9
1665978448.10775,-6739,-6142,-1817,-13492,784,923,1577,-59,-194,24
1665978448.1219943,-6752,-6139,-1805,-13488,788,994,1593,-43,-192,29
1665978448.144582,-6769,-6132,-1800,-13483,758,1009,1630,-15,-181,7
1665978448.1676605,-6785,-6121,-1794,-13481,709,908,1655,12,-183,-5
1665978448.1823833,-6801,-6110,-1794,-13478,701,969,1673,19,-178,5
1665978448.21026,-6816,-6098,-1784,-13477,715,955,1674,-21,-183,20
1665978448.2278147,-6829,-6091,-1769,-13476,747,923,1637,-31,-196,28
1665978448.2504046,-6841,-6089,-1763,-13472,756,940,1633,19,-198,16
1665978448.2644098,-6852,-6088,-1765,-13466,746,1005,1626,39,-190,14
1665978448.2877715,-6863,-6087,-1768,-13461,743,994,1655,52,-194,19
1665978448.3021908,-6872,-6087,-1767,-13456,749,950,1646,53,-196,17
1665978448.3246605,-6882,-6086,-1764,-13452,727,975,1586,19,-191,34
1665978448.3479183,-6887,-6089,-1769,-13447,739,972,1584,70,-188,35
1665978448.3623407,-6902,-6085,-1768,-13441,748,986,1583,5,-169,-4
1665978448.384642,-6912,-6081,-1770,-13438,744,966,1645,51,-170,13
1665978448.4077747,-6919,-6086,-1775,-13431,744,952,1621,94,-207,12
1665978448.422052,-6932,-6089,-1778,-13423,728,998,1634,60,-214,2
1665978448.4476326,-6948,-6090,-1771,-13415,734,954,1616,11,-222,-1
1665978448.468012,-6962,-6090,-1770,-13408,729,945,1629,46,-207,-8
1665978448.488227,-6975,-6092,-1773,-13400,714,972,1629,61,-218,-1
1665978448.5045874,-6985,-6097,-1776,-13392,726,1005,1635,69,-222,14
1665978448.5277424,-6998,-6101,-1773,-13384,722,991,1607,32,-230,18
1665978448.5421083,-7010,-6107,-1769,-13375,755,997,1604,28,-225,12
1665978448.5648887,-7021,-6112,-1769,-13367,739,986,1624,55,-226,12
1665978448.5877826,-7034,-6116,-1768,-13359,722,993,1605,42,-227,9
1665978448.6021242,-7046,-6122,-1769,-13350,724,983,1614,62,-230,9
1665978448.624621,-7054,-6129,-1771,-13342,735,980,1613,79,-225,18
1665978448.6476834,-7063,-6136,-1773,-13334,728,989,1607,73,-232,21
1665978448.6620836,-7074,-6141,-1772,-13325,737,995,1606,50,-225,12
1665978448.6845224,-7087,-6144,-1768,-13318,729,994,1593,22,-221,15
1665978448.7077842,-7101,-6144,-1759,-13312,736,980,1624,3,-219,13
1665978448.7220836,-7115,-6144,-1753,-13305,729,974,1620,22,-222,10
1665978448.7445095,-7130,-6148,-1748,-13295,735,1001,1604,19,-232,4
1665978448.7680128,-7142,-6151,-1743,-13288,739,992,1614,27,-225,17
1665978448.782338,-7155,-6153,-1739,-13281,729,1001,1608,20,-220,19
1665978448.8045614,-7168,-6156,-1737,-13273,724,1006,1604,33,-223,13
1665978448.8278458,-7182,-6159,-1731,-13265,727,1004,1574,7,-224,14
1665978448.8421094,-7194,-6160,-1725,-13258,743,989,1590,11,-206,17
1665978448.864793,-7207,-6159,-1721,-13253,734,991,1592,12,-195,15
1665978448.8878534,-7219,-6157,-1718,-13247,728,989,1596,21,-190,13
1665978448.902157,-7233,-6154,-1713,-13242,734,987,1602,6,-195,14
1665978448.9246159,-7247,-6149,-1705,-13237,722,965,1629,6,-198,12
1665978448.9478579,-7261,-6146,-1697,-13232,732,966,1645,7,-208,6
1665978448.9621198,-7277,-6144,-1691,-13225,727,993,1643,8,-219,4
1665978448.9847171,-7292,-6144,-1681,-13218,728,981,1636,-1,-228,12
1665978449.0078769,-7306,-6145,-1672,-13211,725,979,1619,6,-235,16
1665978449.0221515,-7320,-6149,-1667,-13202,729,981,1636,35,-240,8
1665978449.0474682,-7334,-6154,-1660,-13193,725,968,1622,32,-244,7
1665978449.067266,-7347,-6159,-1654,-13184,732,977,1620,30,-241,6
1665978449.0853825,-7362,-6164,-1649,-13174,743,994,1623,34,-242,1
1665978449.1046689,-7375,-6171,-1645,-13164,728,987,1634,47,-250,4
1665978449.1271856,-7391,-6178,-1640,-13153,733,987,1618,35,-256,-6
1665978449.1459515,-7407,-6184,-1631,-13141,746,997,1613,13,-258,-1
1665978449.1648228,-7421,-6190,-1621,-13132,747,983,1629,12,-255,11
1665978449.1872041,-7434,-6196,-1614,-13122,720,988,1612,32,-256,14
