1665978419.545812,3,-7,-3,2,-5,-3,-6,-2
1665978419.5472138,-3,10,0,-2,0,-1,4,-8
1665978419.548469,0,-8,0,2,-1,-3,-3,3
1665978419.5500147,-1,-2,-3,-4,-4,-2,-5,-2
1665978419.551615,-3,7,0,-2,1,2,1,-1
1665978419.5524964,-3,-4,-2,-1,-3,0,-4,0
1665978419.5536041,0,-3,2,0,-1,0,1,-3
1665978419.554452,0,2,-1,-3,-1,-1,-1,-3
1665978419.555531,-3,8,4,-3,-2,-2,1,2
1665978419.5563474,-1,-2,-1,0,-1,-3,-2,1
1665978419.5747726,0,-7,-3,-2,-1,0,-1,-4
1665978419.5760095,-3,4,1,-3,-1,-2,2,3
1665978419.5788414,-1,-3,0,-2,-5,1,-2,-3
1665978419.5818613,0,-7,0,2,-1,0,-5,-2
1665978419.589914,-5,6,-4,-3,-1,-2,-1,-1
1665978419.5918784,-4,1,-1,-3,0,2,-1,-2
1665978419.5972505,0,-5,-5,-3,2,0,0,-1
1665978419.599265,2,-3,1,-3,0,-1,0,-3
1665978419.606375,0,3,0,-6,-1,0,-3,0
1665978419.6083567,-1,-2,-3,-1,-3,0,-1,-2
1665978419.620746,-1,-1,-2,-2,-3,-1,-1,1
1665978419.6226985,3,8,-13,-2,-1,2,1,-3
1665978419.628387,-5,7,3,-2,0,1,1,-4
1665978419.6309397,2,-3,2,3,1,1,-1,1
1665978419.6349542,-3,1,-3,-2,-1,-2,1,-1
1665978419.6371,0,-7,2,1,1,-2,-2,3
1665978419.6498642,-1,-7,-2,2,-1,0,1,-2
1665978419.651953,-3,-1,-2,4,0,-4,-1,-5
1665978419.6577392,-3,-3,0,1,0,3,-1,0
1665978419.6598372,-1,-2,4,-1,0,-4,-3,-1
1665978419.6665912,2,-3,-1,1,-2,-2,-1,-4
1665978419.6685746,-1,-2,2,-2,-1,0,1,1
1665978419.6810305,2,-2,0,0,-2,-3,-2,-1
1665978419.683269,-3,-6,-1,-3,-2,-1,0,-1
1665978419.6877809,3,1,-3,-3,2,1,-1,0
1665978419.689915,-2,-2,-1,3,-2,-1,-1,-2
1665978419.6959999,1,-3,-4,-3,-2,0,0,3
1665978419.6979308,1,4,-3,-2,0,3,-4,1
1665978419.7109885,-2,2,-1,-3,-3,-4,3,1
1665978419.7131002,1,0,-3,1,1,-2,1,1
1665978419.7175422,-2,2,-2,0,-2,-3,-3,0
1665978419.7197206,-5,2,2,2,0,-3,0,-3
1665978419.7274837,-2,4,0,1,0,-1,0,0
1665978419.7296066,2,1,-3,-3,-2,0,-2,-1
1665978419.7410972,-5,-1,-1,-1,2,-2,2,-1
1665978419.7431285,-4,-4,3,-1,-2,-2,-2,-4
1665978419.7491364,2,0,-2,-1,-3,-2,-1,0
1665978419.750995,3,-3,0,-3,-1,-2,-2,-1
1665978419.755053,3,0,3,1,1,-1,-1,-4
1665978419.7568438,0,-2,-4,-4,1,0,-3,-1
1665978419.7698658,-3,-2,0,2,1,-1,-4,1
1665978419.7717624,-2,-7,-1,0,-3,-2,0,-1
1665978419.777371,3,0,-3,-1,1,0,-2,-3
1665978419.7797241,6,-10,-2,3,-3,-2,-3,1
1665978419.7863019,1,-3,0,1,-4,-1,-2,-2
1665978419.7882082,-1,1,-4,-5,-1,-1,-4,-3
1665978419.8006985,2,-6,-3,-2,0,0,-4,0
1665978419.8027403,0,4,-3,-1,-2,-3,4,-1
1665978419.8078914,4,-4,2,-3,-5,1,-3,1
1665978419.8100834,-1,0,-5,-2,1,1,0,0
1665978419.81526,-1,-2,-1,4,0,-5,4,-4
1665978419.8172657,1,1,-2,-3,0,2,-1,-2
1665978419.83092,0,-2,-5,1,-2,-1,-3,-2
1665978419.8330839,3,-2,3,-1,0,-1,-2,-4
1665978419.8376217,-3,-3,0,-3,2,-1,-1,-2
1665978419.8411233,-4,1,-3,1,-1,-5,-2,1
1665978419.853996,0,-2,1,2,3,-3,-5,0
1665978419.8560512,-2,0,-2,0,-2,-4,-2,-2
1665978419.861599,0,-1,0,0,-2,-1,-2,-2
1665978419.8636856,-2,-7,-1,-2,-2,3,3,0
1665978419.8673902,0,1,-6,-1,0,0,0,-2
1665978419.8693593,-1,0,3,-1,-2,0,0,0
1665978419.8749654,0,-2,-1,0,-2,-1,-4,-1
1665978419.877121,1,3,0,-1,-5,-1,-2,1
1665978419.8899248,-2,3,-3,1,0,-2,0,-1
1665978419.8918614,2,-5,-1,-2,2,3,-1,-1
1665978419.8975701,2,-5,-3,-1,-4,0,-1,-1
1665978419.8995373,-2,1,-3,-1,1,0,-4,-3
1665978419.9062257,-2,-2,-2,2,0,-2,-4,-1
1665978419.9094088,-2,0,-5,-1,0,-2,2,0
1665978419.9206183,-4,4,-2,0,-2,2,-2,-1
1665978419.9226582,2,-4,0,1,-1,0,0,1
1665978419.9281416,4,-4,1,1,-2,0,-1,-3
1665978419.9300425,1,-2,1,0,3,0,-4,0
1665978419.934668,-6,0,1,-4,0,-1,-2,-4
1665978419.9365304,-2,3,0,-2,-3,-2,-2,1
1665978419.9582055,-2,-2,-1,-4,-1,-2,1,-2
1665978419.960805,1,2,-1,-1,-5,0,0,-1
1665978419.963695,2,-2,0,-1,-1,1,-2,0
1665978419.9655387,-2,-2,-1,-1,0,0,-2,-2
1665978419.968763,-4,-3,0,0,0,-1,-3,-2
1665978419.970634,3,-6,-1,-2,1,-3,0,2
1665978419.9815633,0,-1,1,0,-4,-1,1,0
1665978419.9837615,1,-3,0,0,3,1,0,-1
1665978419.9872653,-4,2,1,-1,-5,-1,-2,-1
1665978419.9891675,-2,-1,-5,2,-3,3,0,0
1665978419.996264,3,1,-5,2,0,-3,-3,0
1665978419.9988399,0,-2,-1,-1,-1,2,0,0
1665978420.010326,1,-3,-3,-1,-1,1,1,-1
1665978420.0123994,-1,-4,0,1,-1,-5,-2,-2
1665978420.0171704,1,-3,0,-1,1,-2,4,-2
1665978420.0191848,-1,-5,-2,-2,0,-2,-2,-1
1665978420.0268116,1,-2,1,-2,-4,1,3,-1
1665978420.0293036,-4,-1,0,-1,-3,-4,-2,-3
1665978420.0406728,-1,-1,-4,0,1,1,-1,-1
1665978420.0428312,-2,3,-1,-1,-1,-4,-1,-1
1665978420.0479193,1,-5,-1,-6,0,-1,2,0
1665978420.0499544,-2,-1,2,1,-2,4,-1,1
1665978420.0549512,-1,-1,-3,-3,-4,-2,1,-3
1665978420.05682,-1,-4,-3,2,1,-1,0,0
1665978420.0698183,-3,1,-4,-3,-1,0,-4,0
1665978420.0719047,-3,-1,-2,-4,1,-2,-2,0
1665978420.0782049,1,0,5,-3,-2,1,-2,-1
1665978420.080102,1,-2,-3,2,3,-1,-2,0
1665978420.0871089,3,2,1,-1,-2,0,-3,0
1665978420.0890646,1,-5,-3,-3,-1,-2,-1,-2
1665978420.1009247,-4,-1,-2,1,1,-3,0,2
1665978420.103251,2,8,1,-1,-4,-1,3,-3
1665978420.107727,-2,-1,-3,4,1,-2,-3,-2
1665978420.1098802,0,1,1,2,-4,3,-2,1
1665978420.1151454,3,2,-3,-3,-1,-2,-2,0
1665978420.1171248,2,-8,0,-3,-4,0,-5,-4
1665978420.1307647,2,-4,1,-3,1,1,2,0
1665978420.1328769,1,-3,2,4,-2,-4,-3,-2
1665978420.1375198,-2,-3,-1,0,-1,0,-1,-1
1665978420.1394806,3,-2,3,-2,0,0,0,-2
1665978420.147024,0,-3,-1,3,1,-1,-1,-1
1665978420.1490428,1,3,-1,-2,3,0,1,0
1665978420.161617,2,-3,-2,0,-1,-4,-1,-2
1665978420.1637654,-5,3,3,-1,-3,-2,-2,-1
1665978420.1674457,1,-1,4,-3,-1,-1,2,-2
1665978420.169354,3,-5,-6,-1,-1,0,-2,2
1665978420.1753879,1,-2,-1,3,-1,-2,-4,-2
1665978420.1776695,-2,-4,-3,-3,0,-5,0,-1
1665978420.19016,-2,2,-1,-1,1,-1,-2,-1
1665978420.192409,-1,2,-3,3,1,-3,0,-2
1665978420.1975658,0,-3,1,-1,-1,2,0,0
1665978420.199663,-5,-2,-2,-2,-3,2,1,-2
1665978420.2144012,-1,-3,2,1,1,0,-2,0
1665978420.2164757,3,-4,0,4,-2,-5,-2,-2
1665978420.2207005,-1,-1,-3,-2,-2,0,-1,1
1665978420.2226903,2,0,-3,1,-3,-4,-2,0
1665978420.227902,2,-2,0,-1,-3,-1,2,-4
1665978420.2305632,-3,2,1,0,1,1,0,-1
1665978420.235135,2,-5,-1,1,-2,0,-3,1
1665978420.2371392,-3,-1,-1,0,-2,-2,0,-1
1665978420.2499955,2,-5,-3,-1,-2,-3,-1,2
1665978420.2519438,0,0,0,-2,1,-1,0,0
1665978420.2575383,-4,-1,2,-4,-1,-1,1,0
1665978420.259843,0,1,0,4,-1,2,-3,-1
1665978420.2728305,-2,-3,-3,1,0,0,0,-2
1665978420.2749622,0,-4,0,-2,-2,3,-1,-4
1665978420.2807574,-2,-4,-3,0,-1,-2,-2,1
1665978420.2828777,3,-3,5,-2,1,-6,-2,1
1665978420.2875845,0,-3,-7,-5,-1,0,0,-2
1665978420.2894843,-3,-1,-1,-4,-1,1,-3,0
1665978420.294925,1,-3,2,1,-3,-4,-3,-1
1665978420.2968068,-1,-1,0,-1,-1,0,2,-1
1665978420.3099284,-1,-3,-3,1,0,-1,-4,0
1665978420.3119211,-1,-5,0,-2,-1,0,1,-2
1665978420.3172853,0,2,-3,0,-5,2,-2,0
1665978420.3192422,-1,-4,4,1,0,-2,-3,-7
1665978420.33272,0,-1,0,-4,-4,1,0,-2
1665978420.3348362,0,-4,-5,-3,-4,2,-2,-3
1665978420.3409257,-1,0,-4,-1,0,1,1,-3
1665978420.3433065,2,-3,-1,1,-4,-1,-3,0
1665978420.347766,-3,-2,1,4,-1,-3,-4,-2
1665978420.3498793,0,-2,3,-2,0,-4,0,-1
1665978420.3553228,-1,-5,-2,-4,-1,2,-4,0
1665978420.357335,-3,0,0,1,-2,1,-1,1
1665978420.3700438,-5,0,-5,-3,0,-4,-1,0
1665978420.3720477,0,-4,-2,0,-1,-3,0,1
1665978420.377387,-4,1,0,1,0,-2,1,-4
1665978420.3798106,-2,0,-8,-4,1,0,-1,0
1665978420.3936946,-7,2,2,2,-3,2,-1,2
1665978420.3958528,0,3,-1,-3,-3,0,-2,-2
1665978420.4095755,1,-1,0,-4,2,0,-2,-1
1665978420.4117603,-2,2,-5,-1,-3,-2,1,1
1665978420.4152558,5,-6,1,-3,-6,-2,2,-3
1665978420.4173756,-5,-2,-6,0,2,-2,0,0
1665978420.4208205,-3,0,2,-2,-1,-3,1,-3
1665978420.4228766,-1,-3,-4,-3,-1,-2,-2,0
1665978420.4313278,4,-4,-1,-1,-3,0,-1,0
1665978420.4339523,-5,0,4,1,-2,0,0,-2
1665978420.4375124,-2,-4,-4,-1,0,-1,-2,-3
1665978420.439551,-1,-3,0,0,-1,5,-2,-1
1665978420.4526067,-1,-1,-1,-4,0,-4,-2,-2
1665978420.4550228,-2,-6,-1,-1,-1,-2,2,1
1665978420.4618647,1,-1,0,2,-5,0,-5,1
1665978420.4646246,-1,2,-5,-5,-2,1,0,-7
1665978420.4682307,-1,0,0,-4,5,1,-3,4
1665978420.4703147,1,-2,1,1,-3,-2,0,0
1665978420.4751375,0,2,-2,2,0,3,-2,-4
1665978420.47738,2,-6,-2,0,0,-2,2,3
1665978420.4984827,-4,2,1,2,0,2,-1,1
1665978420.5010095,-2,7,0,-5,-1,-1,-2,0
1665978420.5037773,0,-8,-1,-1,-3,-4,1,-3
1665978420.5057018,-1,-2,2,0,2,-3,-1,2
1665978420.5214465,-3,3,-3,0,-5,-3,0,-2
1665978420.5234826,-1,-1,-4,1,0,0,-2,1
1665978420.5260112,-1,-1,2,-3,3,2,-1,2
1665978420.5284245,3,-4,-2,-1,2,0,-3,-6
1665978420.5350552,0,-2,1,-1,2,-2,-1,-1
1665978420.5371778,1,-2,0,0,-3,-1,0,-9
1665978420.543345,1,-3,-3,1,-1,-2,0,2
1665978420.54548,-2,2,2,1,-1,0,2,-1
1665978420.5585966,0,1,-2,0,2,1,-3,1
1665978420.5608435,-2,1,0,0,-1,-4,-2,0
1665978420.5645022,1,0,-3,2,1,-2,-2,-4
1665978420.5667737,2,-1,-1,-2,-2,1,-3,2
1665978420.5732362,-2,1,-2,3,-5,0,4,-1
1665978420.5752013,2,-2,-2,-2,3,2,-4,1
1665978420.5814831,1,0,2,-4,-1,-2,1,-2
1665978420.583706,-2,0,3,-3,0,-1,-1,-3
1665978420.5965688,-4,3,-6,-5,0,1,0,-2
1665978420.5990405,4,-4,-4,0,-2,-1,-1,-2
1665978420.6030467,1,2,6,6,-3,0,0,5
1665978420.6051602,-3,-5,-2,0,-3,-1,-2,1
1665978420.6185062,-2,-2,2,-4,-2,-2,-1,1
1665978420.6206625,-2,-3,1,0,0,0,-3,-10
1665978420.6234913,-1,-3,-1,-4,-1,-2,-1,2
1665978420.6255462,1,-1,-2,1,-4,0,0,0
1665978420.6325917,2,-2,-1,-2,1,-5,0,0
1665978420.6346648,-2,2,1,4,-1,-1,0,4
1665978420.6408541,-3,-2,-7,-3,0,1,2,-2
1665978420.6431985,-5,2,-5,-2,-3,0,0,-3
1665978420.655339,2,-4,0,0,-3,-4,-1,-3
1665978420.6577382,-2,0,-2,0,-3,-2,-1,4
1665978420.663456,-1,-3,-4,0,-3,-4,-2,0
1665978420.665591,2,2,2,0,-2,-1,-1,0
1665978420.6783154,3,-3,2,-1,-2,3,-2,-3
1665978420.6803725,2,-1,-3,-5,-2,-2,-3,-2
1665978420.6831503,-4,-2,1,-1,0,0,3,0
1665978420.6851969,-4,1,-4,0,-2,-4,0,3
1665978420.6927092,2,-6,-4,4,2,0,-4,-4
1665978420.694793,-4,-2,5,-6,0,-1,1,-3
1665978420.7007825,-1,0,-3,-3,-2,-1,0,-5
1665978420.7027662,0,-4,-1,1,-2,1,-2,1
1665978420.7149446,-1,-1,3,1,-3,1,0,-2
1665978420.7166877,-1,-5,-1,-4,2,0,-1,2
1665978420.7227316,-2,0,0,1,1,-2,-4,-4
1665978420.7242458,3,-1,1,2,-2,-2,-1,-1
1665978420.73699,-1,0,-5,3,-2,-2,-2,-9
1665978420.737965,0,3,-4,1,-1,-2,-2,6
1665978420.7392304,0,0,0,-3,-2,-1,-2,0
1665978420.7401888,-2,-5,-5,-4,-4,-1,0,-4
1665978420.7512863,-2,1,4,-1,-1,-2,-2,0
1665978420.7522058,0,-4,3,1,0,-3,3,-1
1665978420.7600064,-1,-4,-7,-1,0,0,-2,-2
1665978420.7614431,4,-1,3,-1,1,-8,-2,0
1665978420.7739873,-1,-5,-2,-1,3,4,4,-1
1665978420.7749667,-1,-6,0,1,0,-1,-3,-4
1665978420.7826838,3,-1,2,0,-3,-2,0,0
1665978420.7837305,0,-2,-1,-2,-1,-1,1,2
1665978420.797111,-2,-4,-2,0,-2,-3,-2,1
1665978420.7980378,-4,6,-2,2,-1,1,-3,-19
1665978420.7992694,-2,1,-4,-2,-4,2,1,-4
1665978420.800148,-3,1,-2,-5,1,1,0,2
1665978420.8124208,0,1,-4,4,-3,-1,-2,4
1665978420.8134224,0,-5,3,1,-3,-3,4,-2
1665978420.8195853,-1,4,3,1,-1,-1,-4,-2
1665978420.8206012,1,0,2,0,-2,-2,-2,-5
1665978420.8344638,-1,2,1,-3,-2,1,-4,2
1665978420.8354478,2,-6,-6,2,1,3,1,6
1665978420.8422678,-2,-5,-1,2,-1,1,-3,1
1665978420.843458,-1,1,-2,-1,0,-2,-4,-2
1665978420.8571236,-1,-1,-3,-3,0,-5,0,-1
1665978420.8581176,1,-1,0,1,-5,0,0,4
1665978420.8594468,2,-7,-7,1,2,-4,-2,-2
1665978420.8603363,-3,-4,1,1,-1,3,-1,1
1665978420.8713753,-2,-2,-4,-1,2,0,-3,-5
1665978420.8723414,1,2,2,-1,-3,-1,3,10
1665978420.880297,0,-2,-4,0,-3,2,-3,1
1665978420.8813825,0,-4,1,1,1,-3,-4,-4
1665978420.8945167,0,-1,1,-2,-1,-2,3,11
1665978420.8957758,-7,4,-10,-4,-2,-2,-7,-48
1665978420.9018495,3,5,3,-1,2,-2,7,20
1665978420.9028056,-4,-13,7,-3,-2,2,1,-10
1665978420.917152,-2,-5,-5,2,-3,0,0,5
1665978420.918127,0,-5,7,0,2,-3,1,15
1665978420.919383,2,-3,-8,1,1,-2,-6,-18
1665978420.9203107,1,-1,13,0,1,1,-4,-2
1665978420.9312117,-1,-2,-14,-4,-2,-2,-4,-27
1665978420.9320939,2,2,8,0,-1,-1,3,30
1665978420.9394023,-9,-2,-6,0,-2,-6,4,-7
1665978420.9404962,-3,0,5,1,-1,-5,-1,-2
1665978420.9539392,1,-7,-17,2,-1,2,6,-13
1665978420.9549332,-8,4,-6,0,-1,-2,-5,-5
1665978420.9620738,0,-10,6,2,1,2,6,12
1665978420.9630098,-5,-1,-1,-3,-2,-2,2,5
1665978420.9772284,-8,2,8,0,-1,0,-3,-36
1665978420.9783175,-6,-2,4,0,0,-5,-14,-25
1665978420.9794972,-9,6,-8,-9,0,-1,-5,20
1665978420.9803524,4,-1,-8,6,-2,-2,6,21
1665978420.9915352,-12,-6,-4,-4,0,2,-10,-23
1665978420.9925194,-7,8,-11,-5,0,3,-2,7
1665978420.9990907,-7,13,5,-1,2,2,-6,-14
1665978421.0000246,2,-2,-3,1,0,-2,-20,-45
1665978421.0136993,13,-3,4,-1,1,-10,1,53
1665978421.0145996,-1,-5,1,-2,-2,-9,-10,33
1665978421.0220017,-10,-12,-9,-3,-5,8,-12,-66
1665978421.023108,2,12,9,1,-2,-2,-3,-6
1665978421.036936,6,-9,4,-1,-3,-5,-3,41
1665978421.0378826,9,-23,-6,5,0,2,6,3
1665978421.0390851,-3,-18,-5,4,0,16,7,-33
1665978421.04,12,8,-2,-7,-1,-4,-9,24
1665978421.0513763,17,-9,17,0,-5,-18,-7,34
1665978421.0523393,20,8,17,1,5,20,25,47
1665978421.058806,33,12,-7,2,-4,8,-17,53
1665978421.0598114,-4,9,6,-3,6,2,24,24
1665978421.0740678,24,-6,-16,-4,-3,3,-17,-62
1665978421.0750804,9,-7,-1,6,-3,-5,-3,43
1665978421.0818775,25,-8,-7,-4,0,-11,14,43
1665978421.0827427,-28,13,16,12,-2,13,-26,-15
1665978421.097479,8,28,0,5,-2,-4,15,-23
1665978421.09848,-19,-3,-23,-9,-2,-9,-36,-29
1665978421.0997283,-1,8,17,6,1,-8,10,70
1665978421.100654,-6,-30,-12,-4,-4,5,7,19
1665978421.1200354,-4,4,-5,-11,1,7,11,1
1665978421.1209433,-17,-8,10,2,0,0,-12,-56
1665978421.122298,-24,8,8,-8,2,-20,-21,-60
1665978421.1233315,11,-1,-10,-8,-2,-3,4,-37
1665978421.134206,-11,4,8,-1,0,14,-14,-28
1665978421.1351423,-10,-15,-12,-7,-1,5,-8,-6
1665978421.1422021,-10,11,-14,-4,-6,-29,20,39
1665978421.143445,24,-16,-8,6,-10,-7,11,33
1665978421.1570783,-25,-11,7,3,6,8,17,43
1665978421.157992,-4,5,10,4,-2,5,26,33
1665978421.1592097,-8,2,22,-11,0,-2,-22,-35
1665978421.1601477,18,-30,1,6,1,1,-4,-25
1665978421.1712599,-4,5,-4,-2,0,4,23,41
1665978421.1722193,-6,15,-13,-6,-2,-11,-16,-3
1665978421.17916,-4,-4,-12,0,1,12,21,-13
1665978421.180338,-1,-2,-22,-2,4,1,5,13
1665978421.194768,3,-13,0,1,-1,-6,-28,24
1665978421.1962786,0,2,-2,-4,-3,5,-16,-77
1665978421.2019322,10,-8,-1,5,-2,22,24,42
1665978421.2030377,-10,8,-23,-2,2,15,-4,-29
1665978421.217179,8,-5,-8,10,-8,2,25,26
1665978421.2180061,43,6,-15,1,2,-2,39,84
1665978421.2192273,-8,-16,1,5,-7,-4,-102,-67
1665978421.2203276,-16,25,0,-10,1,-10,18,26
1665978421.2315285,1,0,6,-3,0,-30,-18,27
1665978421.232454,-14,2,-5,-9,2,14,15,5
1665978421.238816,10,-14,12,2,-1,6,-11,2
1665978421.2397132,-20,-5,1,-4,2,-6,8,4
1665978421.2541628,-1,-1,-7,1,-4,9,-1,8
1665978421.255229,-6,0,-1,0,-5,-7,-29,17
1665978421.2626376,13,-7,-2,2,-2,-20,15,76
1665978421.2635996,-7,4,7,-4,1,9,-2,17
1665978421.2773643,3,-6,-2,8,-1,-1,34,-77
1665978421.2784052,4,-2,22,6,2,1,27,59
1665978421.279764,4,-7,-20,-2,-6,-3,41,-25
1665978421.2806885,11,-15,-2,12,-2,1,-31,-7
1665978421.2917714,-16,10,-1,-8,3,11,4,35
1665978421.292924,-5,-13,5,3,-8,-17,-67,-93
1665978421.2986841,12,-7,-11,-5,2,14,50,43
1665978421.2996752,9,7,4,3,-4,4,-61,5
1665978421.3139157,6,-15,-14,-8,-5,14,-3,29
1665978421.3148792,-8,-6,-4,3,0,27,16,-68
1665978421.338623,-2,-9,-5,2,3,17,3,60
1665978421.3396597,-10,16,-1,-7,3,-4,-21,74
1665978421.3411746,1,-8,3,6,-5,-5,-29,64
1665978421.3421383,8,-11,-4,-3,1,10,45,98
1665978421.3437262,-3,6,-12,-6,-2,3,-5,19
1665978421.3446507,21,-8,2,0,-3,8,40,28
1665978421.3821898,2,-6,3,-5,0,2,-14,-55
1665978421.3833265,-12,13,-4,0,1,-14,-19,-82
1665978421.3905592,22,-18,-23,12,-3,7,59,21
1665978421.391462,-3,5,-7,-3,-2,-12,9,7
1665978421.4053574,-26,24,7,-12,0,-1,27,-66
1665978421.406372,-3,-17,-1,-8,-6,-8,25,16
1665978421.4079616,-8,11,9,-7,4,-29,-22,21
1665978421.4088812,-11,-21,0,-11,2,8,-9,-96
1665978421.4188783,15,-3,5,-5,-6,-46,0,9
1665978421.419951,13,-23,0,2,-5,0,-1,7
1665978421.4281168,7,-36,-25,2,-12,-4,9,-31
1665978421.4292061,15,-37,-21,1,-11,-15,45,1
1665978421.4427998,15,-26,-8,3,1,25,12,32
1665978421.4437943,37,-42,-28,11,-8,17,27,33
1665978421.445287,13,-35,4,0,-10,-21,-34,-37
1665978421.4462724,2,-3,0,0,-5,-6,-14,5
1665978421.456466,-9,4,-13,4,-2,16,1,6
1665978421.4574318,-11,0,-25,-15,-6,-54,-47,11
1665978421.4717026,7,-29,5,4,-2,18,5,-13
1665978421.4726126,2,21,-11,-3,-7,1,26,29
1665978421.480652,4,-29,-12,-5,-13,-25,-27,10
1665978421.4816518,-4,13,1,3,-5,3,-25,-6
1665978421.4832423,-8,41,12,-2,-4,-10,-2,-14
1665978421.484194,11,-48,-48,-1,-3,-6,32,23
1665978421.4960663,21,53,-8,4,1,30,41,66
1665978421.4973283,-18,-23,-10,-5,-8,1,-22,-93
1665978421.4989662,-10,64,6,-9,-3,-5,-36,40
1665978421.4999065,-1,-30,-19,6,-6,9,-8,6
1665978421.5012197,-29,39,0,-9,-9,10,-7,31
1665978421.5021496,18,-36,-25,8,-6,24,45,47
1665978421.5187328,-12,55,-4,-7,-5,11,86,27
1665978421.5196939,-11,-10,13,4,1,-9,-74,-102
1665978421.5209384,-13,56,4,-15,-1,-13,13,19
1665978421.5220509,12,-18,2,8,3,-21,-3,45
1665978421.5246289,-20,28,0,0,-3,-20,1,5
1665978421.525521,-8,-1,-14,-12,-7,2,-1,47
1665978421.539537,-12,-21,1,2,-2,-11,-27,-93
1665978421.540523,-4,71,26,-7,6,4,6,27
1665978421.5417905,3,-55,2,6,0,-12,-82,13
1665978421.542696,-22,58,37,-12,4,-20,-7,-23
1665978421.5538852,-4,-45,-14,-3,-1,-12,-14,-43
1665978421.5548577,3,12,-6,-4,-2,10,1,5
1665978421.5621293,-1,-22,0,-4,1,-4,11,-35
1665978421.5630555,7,13,-6,8,-6,-9,13,42
1665978421.5768535,19,-23,13,3,3,0,21,28
1665978421.5781221,-20,6,27,-3,-3,2,-71,-85
1665978421.5844173,3,-4,-7,-2,5,38,49,63
1665978421.5853622,-22,-5,3,-2,-5,5,-34,-86
1665978421.5994248,0,-3,17,3,1,-17,6,-8
1665978421.6003833,5,-18,-20,0,-2,-3,13,33
1665978421.6016066,-7,5,-9,-2,-5,15,14,62
1665978421.6024864,22,-1,-6,-11,-17,-10,-15,15
1665978421.6144054,-31,-8,32,9,8,-10,-78,-49
1665978421.6153686,8,24,7,0,5,3,24,55
1665978421.6225822,3,-15,4,0,2,-13,-42,-57
1665978421.6237588,1,6,12,2,5,14,29,49
1665978421.636433,0,5,-17,-3,-3,-24,6,-22
1665978421.6377454,2,0,2,0,0,2,23,26
1665978421.6452906,-13,-3,11,9,-2,-14,-9,-37
1665978421.6463683,-11,1,-5,-6,-2,-3,-50,-23
1665978421.6616914,12,-8,-10,2,1,22,3,-23
1665978421.6643503,2,7,-1,2,-2,-12,28,12
1665978421.6671844,1,5,-19,-4,0,14,-6,25
1665978421.6691918,-14,13,2,1,5,2,25,-66
1665978421.6753907,7,-12,0,-4,0,3,34,58
1665978421.6776927,-9,4,-1,-11,1,-2,-61,-32
1665978421.683695,-15,-17,0,0,-3,13,-8,-49
1665978421.6857672,15,-6,-7,10,2,2,45,70
1665978421.6983259,7,-1,-17,0,-4,3,-52,-53
1665978421.7003393,-5,3,2,0,-1,-24,15,13
1665978421.7059715,-6,20,25,-3,10,5,-50,-27
1665978421.7079785,3,0,-3,3,3,-10,7,10
1665978421.7209268,-1,5,-6,1,-1,0,39,2
1665978421.7230268,0,2,-6,-7,-2,-3,9,1
1665978421.7259169,-2,-2,-6,0,-6,-15,12,-44
1665978421.7283108,3,-3,14,-1,-1,1,9,16
1665978421.7352288,0,-5,-14,6,4,1,-7,23
1665978421.7371511,3,-5,-7,-1,1,14,38,-18
1665978421.7438297,15,2,-7,10,0,-3,19,12
1665978421.7459037,11,3,7,0,-5,6,15,23
1665978421.7578914,-1,-2,-12,1,-3,-1,38,27
1665978421.7600408,1,4,7,5,-2,-1,15,1
1665978421.766171,-6,-9,-13,-6,-6,-4,-8,-24
1665978421.7682488,0,4,-4,-1,2,0,0,14
1665978421.7813792,-14,-5,-4,-6,-8,-8,-23,-11
1665978421.783466,0,-2,5,1,-2,-9,-10,12
1665978421.786287,-6,3,20,-1,3,7,-41,-1
1665978421.7882257,3,-7,-14,-4,-1,-36,-15,24
1665978421.797049,-14,8,12,-1,2,15,7,-30
1665978421.7989657,-10,1,-5,2,0,5,-9,3
1665978421.8032258,1,9,-7,-5,1,-1,10,15
1665978421.804971,-5,3,-6,4,2,19,-2,-4
1665978421.8177254,10,-8,-7,1,-5,4,-20,21
1665978421.8196414,-7,5,-9,-7,0,-1,-10,-37
1665978421.8260036,11,-7,-7,4,-4,5,34,27
1665978421.8282218,-2,-4,4,-1,-1,-8,32,10
1665978421.8408825,1,-5,3,1,0,-13,-14,2
1665978421.842841,8,-13,2,7,-4,15,-36,-22
1665978421.845577,-5,-9,3,3,2,-7,12,14
1665978421.8474333,-2,-1,2,1,-1,0,-33,-21
1665978421.8566391,-2,1,-14,2,4,11,39,22
1665978421.8586006,-16,3,8,0,4,-6,-15,-17
1665978421.8637547,6,11,4,-6,-2,-5,22,-16
1665978421.8658412,-1,-2,7,3,0,-5,6,5
1665978421.8788059,4,-1,-1,0,4,-28,-13,31
1665978421.880836,1,-2,-3,-4,-3,-7,-8,15
1665978421.885891,2,0,-8,-3,3,2,14,12
1665978421.8876529,-11,-3,6,-2,0,7,-12,-50
1665978421.9012055,7,-2,-10,0,-1,13,9,-18
1665978421.9031432,6,3,-11,-3,-3,0,4,21
1665978421.9057336,1,4,-3,-2,-4,-11,-14,-15
1665978421.9077835,9,-2,-17,3,3,19,36,1
1665978421.9155967,1,-4,3,2,-1,5,-21,-1
1665978421.9176238,3,-4,-7,-4,-4,-3,28,15
1665978421.9235792,0,-2,-13,-2,3,14,-10,-10
1665978421.9257348,5,7,2,1,-3,6,6,0
1665978421.9377718,-7,8,4,-3,0,-4,3,-17
1665978421.9399512,-5,9,-2,-1,-1,4,4,-11
1665978421.9464214,6,-7,2,1,2,6,11,37
1665978421.9484596,-10,6,23,-3,2,-13,-70,-58
1665978421.9614086,9,0,-3,-2,-3,-3,23,19
1665978421.9639597,2,0,0,-2,1,12,11,16
1665978421.966711,-16,6,-1,-13,-1,-17,-60,-49
1665978421.9687638,6,-2,4,1,3,-5,11,24
1665978421.975381,0,10,2,-2,-2,1,-3,6
1665978421.9774787,-11,-10,1,7,0,-3,-9,7
1665978421.985035,-4,10,-3,-5,0,-11,-14,-20
1665978421.9887059,12,8,-5,-5,-4,4,32,13
1665978422.0305295,-1,5,7,-1,-1,-3,-16,-31
1665978422.0324485,7,-9,-12,-3,2,1,34,29
1665978422.0365777,-13,-3,6,-2,-2,3,-5,-32
1665978422.038672,-2,-11,-11,-2,-2,8,18,-15
1665978422.0426316,-7,-1,6,4,-5,-7,15,-14
1665978422.0445795,-1,0,-2,0,4,7,-11,0
1665978422.0515604,8,-10,7,14,-5,5,6,-16
1665978422.0533543,-10,-9,-13,-8,-2,-5,19,5
1665978422.0748265,-8,-9,1,-4,-2,4,-1,-32
1665978422.0770528,4,2,8,4,3,-16,1,7
1665978422.0806527,4,-1,8,-2,3,-2,10,7
1665978422.082758,6,3,3,3,4,-1,-9,15
1665978422.085488,4,-5,5,10,6,5,-10,27
1665978422.0876777,-2,8,2,-2,-5,-31,-44,-20
1665978422.0917647,-3,-5,-7,-2,1,4,18,15
1665978422.0943642,20,-10,-4,10,1,-1,1,1
1665978422.1035452,17,-7,13,4,0,0,0,33
1665978422.1055865,0,-2,-13,7,5,5,12,-9
1665978422.1084683,6,1,13,-4,-2,-8,17,5
1665978422.1104686,2,-12,-6,5,0,0,-14,-2
1665978422.1197236,9,-3,-2,-5,1,-7,6,-4
1665978422.1217062,8,-8,1,9,1,4,14,4
1665978422.12516,-3,1,-4,-5,-2,-2,-1,-65
1665978422.1276407,12,-4,-3,5,1,-7,20,22
1665978422.1417384,4,0,0,2,2,8,12,28
1665978422.1437054,31,-8,-2,-2,-7,-16,-43,2
1665978422.1472225,13,-3,5,16,7,-15,-19,-17
1665978422.1492095,-3,1,3,-13,-5,-9,-16,-27
1665978422.1569977,13,-4,-2,7,0,24,21,34
1665978422.1590993,4,-13,4,-3,-4,7,-6,-16
1665978422.1625683,2,-10,-6,4,-2,3,12,-7
1665978422.1645312,22,-14,-19,12,-3,4,9,34
1665978422.1702807,18,-10,-20,-1,-4,-19,-12,11
1665978422.1722014,1,-8,-5,7,-1,14,-7,-18
1665978422.179571,21,-22,-26,-8,-8,-7,-24,12
1665978422.1813474,12,-6,-8,5,-5,4,0,26
1665978422.1951227,2,-15,-13,-2,-5,-2,-40,-29
1665978422.1972759,4,-8,-20,-8,-6,4,16,-7
1665978422.2008348,0,-14,-21,5,-8,-3,-26,21
1665978422.2028852,-4,-11,5,2,-5,7,-19,-30
1665978422.2080445,4,-10,-18,0,-10,4,-16,16
1665978422.2103248,14,-1,-7,7,-1,0,6,14
1665978422.2167752,14,-15,-6,-2,-8,-19,-14,-7
1665978422.2187622,8,-4,-10,-10,-10,-6,1,31
1665978422.2318938,-8,4,6,2,-1,-11,-7,-10
1665978422.2346478,20,-12,-10,6,-4,-13,2,57
1665978422.238785,-3,5,-3,-6,-3,5,21,-4
1665978422.240752,14,4,1,10,-3,-8,-14,33
1665978422.245458,11,-21,-24,-3,-3,-1,46,-54
1665978422.2476141,9,-10,-24,-11,-8,4,67,6
1665978422.2542636,-4,0,7,0,-5,12,1,-8
1665978422.256153,-8,-7,2,5,8,-2,-9,13
1665978422.2694614,-6,3,-10,-3,-3,2,-32,-42
1665978422.2716327,1,-3,3,-3,-7,-1,-19,-24
1665978422.275265,1,3,-7,7,-1,4,5,19
1665978422.277537,-8,-7,-6,-7,4,13,35,4
1665978422.2918835,6,-2,-15,-10,-4,5,-10,-14
1665978422.2939384,-20,7,18,-8,-2,-12,-20,-10
1665978422.2973647,2,-2,5,9,4,-4,19,51
1665978422.299646,-17,8,17,-6,0,-36,-34,-54
1665978422.3051817,-8,2,3,-17,-1,-12,0,-2
1665978422.3072622,-13,3,8,-1,-4,5,-5,-1
1665978422.3142467,-6,1,9,3,2,4,2,26
1665978422.3163464,-13,0,-14,-3,-2,5,0,-52
1665978422.3294876,-12,-2,0,-13,-3,2,0,17
1665978422.3314762,-4,-1,10,-8,-4,-9,11,4
1665978422.3349473,3,-3,2,0,-7,-7,-18,11
1665978422.3368745,6,-2,-14,6,-2,0,3,-32
1665978422.3519375,5,0,-5,2,1,1,-31,0
1665978422.3539646,-7,1,-15,-14,0,14,7,11
1665978422.357745,-10,5,7,-3,-4,5,-13,-51
1665978422.360195,2,2,8,8,1,7,-7,41
1665978422.3658,7,-2,-11,14,10,-7,2,25
1665978422.3678262,4,0,-5,3,-1,-4,-13,-12
1665978422.3745716,1,-1,-7,-16,-10,4,-18,-21
1665978422.376684,-7,1,10,-5,-9,-1,4,-10
1665978422.3894057,0,3,7,8,-1,0,9,21
1665978422.3917634,-3,2,2,14,8,-4,-15,-6
1665978422.3952866,-10,-2,-5,0,9,-10,-32,-7
1665978422.3972867,0,-7,-18,-13,-3,16,-4,35
1665978422.4130564,-19,-3,-12,-20,-12,8,1,-57
1665978422.4164772,-1,-4,7,-6,-12,-4,0,-42
1665978422.4204276,3,6,1,2,2,0,3,36
1665978422.422534,-1,9,-11,4,3,-10,13,4
1665978422.4255667,-6,6,5,11,5,3,3,-24
1665978422.4278548,4,5,-3,5,8,-13,15,24
1665978422.435827,16,-2,-10,-10,1,-4,-47,0
1665978422.4382076,12,-3,3,-2,-3,-9,22,41
1665978422.448846,-4,0,13,-5,-9,-8,-6,-12
1665978422.4511592,-8,3,-10,3,-6,-1,-2,26
1665978422.4554095,-13,3,9,-3,-3,5,21,-10
1665978422.4574084,9,-4,-6,8,-3,-3,-7,12
1665978422.4720225,2,6,4,4,3,-24,-10,28
1665978422.4741793,-1,2,0,11,6,15,-8,5
1665978422.4781022,-1,-11,1,8,1,-16,9,40
1665978422.4805064,-6,-6,-21,-4,-5,-5,-19,-13
1665978422.494643,2,-3,-3,3,0,15,27,24
1665978422.496849,1,1,1,-3,3,-5,-23,12
1665978422.5002577,-1,-7,-26,3,-1,-7,19,-33
1665978422.5022066,-11,-8,9,-3,0,-10,-23,-39
1665978422.5332682,0,-2,2,-14,4,-6,-7,36
1665978422.5352905,-3,-10,-9,-7,-6,-15,-4,-52
1665978422.5397081,7,-2,5,-11,-12,1,27,-33
1665978422.541929,4,-2,3,-15,-8,-7,-33,-14
1665978422.546498,11,-4,1,-12,-15,3,17,22
1665978422.5485623,-13,-2,11,-9,-15,0,9,6
1665978422.5528393,1,0,0,-7,-9,-6,-7,-24
1665978422.5550287,0,12,14,-4,-3,3,4,-23
1665978422.5694816,-8,-6,-23,8,5,-2,-9,5
1665978422.5715768,10,-16,-14,3,-2,-6,-3,-25
1665978422.5752506,7,-9,-12,4,-5,3,-16,-8
1665978422.5773873,-2,-3,-4,12,-3,-16,13,1
1665978422.5830252,20,-19,-16,-1,-5,24,-8,12
1665978422.5850658,-7,0,-1,-1,-1,1,5,-10
1665978422.591827,-5,-7,-25,-7,-4,-10,-39,-1
1665978422.5939956,-10,-13,-6,-7,-4,9,4,-10
1665978422.6062794,-1,-4,0,0,-7,-4,-28,11
1665978422.6084032,-1,-11,-7,-5,-11,-3,-15,-13
1665978422.6112533,-17,1,18,1,-1,-1,-17,-12
1665978422.6135259,6,-9,-14,-4,-6,5,7,34
1665978422.6216333,-10,7,3,-5,-7,-2,-24,-19
1665978422.6235645,3,-11,-8,2,-3,9,3,7
1665978422.627318,-9,-8,-5,-3,0,1,20,-22
1665978422.6296227,-4,7,-9,-2,-3,1,-13,8
1665978422.6352806,-4,-18,-9,0,-1,-4,20,-14
1665978422.6371834,-18,8,-4,-11,-3,1,-8,12
1665978422.6445103,0,-9,3,8,-2,1,11,-5
1665978422.6467698,-1,-16,-7,3,-6,10,6,-5
1665978422.6593876,-14,21,2,-9,-3,-8,9,27
1665978422.661509,-10,1,3,11,2,-2,-26,-33
1665978422.664791,-4,-5,-5,-10,-1,-8,10,33
1665978422.6666677,-15,12,3,-15,-2,-9,-27,5
1665978422.6727812,-4,-13,2,22,-5,-37,5,-5
1665978422.6749485,-3,8,-6,-14,-1,-6,-20,-15
1665978422.6820245,1,22,-1,-4,-2,4,25,26
1665978422.684128,5,-14,8,6,0,-3,1,17
1665978422.6975536,-18,2,-6,-11,-4,3,-12,-53
1665978422.699996,-6,24,-6,-7,0,4,11,37
1665978422.7035313,12,-35,-5,8,-3,-2,1,14
1665978422.7056406,-12,7,-11,-10,1,5,7,-1
1665978422.7087512,-12,41,10,-3,2,4,13,19
1665978422.7109556,-8,-41,-16,1,-5,-12,-28,-62
1665978422.713892,-6,4,6,-4,7,9,13,21
1665978422.7161758,-14,30,7,-10,0,-25,21,-8
1665978422.7198386,20,-14,-4,5,-1,2,-3,0
1665978422.7218428,-4,-16,9,7,4,7,-9,26
1665978422.7272015,-17,22,-8,-17,0,14,-4,30
1665978422.7294793,0,11,2,5,-5,4,1,-17
1665978422.7402508,0,-24,6,2,-4,-4,-3,3
1665978422.742437,12,-2,5,1,2,4,7,8
1665978422.7499924,-3,32,-3,-10,5,4,-7,25
1665978422.7519755,-8,-35,-6,7,0,9,-4,-57
1665978422.7632396,-3,22,4,-1,-1,7,2,16
1665978422.7652378,3,-11,-5,-4,0,-6,14,3
1665978422.7716568,2,1,2,4,-2,-14,-4,12
1665978422.773473,-3,2,-5,-2,1,11,-3,-1
1665978422.779062,0,-9,-1,-1,1,0,-11,-9
1665978422.7812362,3,7,4,-4,0,-2,11,6
1665978422.7867272,-3,-9,-11,-2,-4,-8,-6,-57
1665978422.7887228,23,-5,-20,1,-5,-5,-6,11
1665978422.8006434,-4,-4,2,-1,-3,4,6,-3
1665978422.8026962,-2,15,8,-2,-3,-14,8,22
1665978422.8116522,-11,-10,-5,3,-2,-1,0,13
1665978422.8144019,-26,19,2,-10,-1,2,-8,-1
1665978422.8228922,0,-5,-2,5,5,-5,-10,-39
1665978422.824793,0,7,2,0,0,-4,-3,42
1665978422.831864,-6,-13,-7,3,-6,9,-17,-33
1665978422.8338435,-4,-2,-5,-2,2,-10,10,11
1665978422.8378372,-12,16,-4,-8,-3,-5,-2,-12
1665978422.8397973,3,-8,-8,-1,1,3,-2,12
1665978422.8471282,3,1,8,1,4,-3,9,6
1665978422.8493211,7,-13,4,1,-2,9,21,-3
1665978422.8760507,17,-32,-15,6,-2,7,-10,7
1665978422.8780792,-5,-1,-8,-5,-1,-1,2,-13
1665978422.8844197,4,3,1,6,-3,5,-3,10
1665978422.886635,-11,4,-3,-3,-3,-5,14,21
1665978422.9070776,-13,14,-12,-14,0,6,4,-13
1665978422.9093919,9,6,1,3,-3,5,6,-33
1665978422.9138863,3,2,-3,-11,-1,5,-3,13
1665978422.9159634,10,-14,10,7,2,-10,-4,-3
1665978422.9370708,0,-8,0,4,3,-7,-9,10
1665978422.9393313,-17,13,12,-5,1,-2,-36,-24
1665978422.943063,3,-10,4,4,0,0,19,-5
1665978422.945351,8,6,1,0,-2,25,-1,2
1665978422.9655936,-1,-4,9,0,-2,0,-14,2
1665978422.9676836,4,6,-12,-5,-2,-12,10,36
1665978422.976026,-9,-2,10,-4,1,-11,-35,-47
1665978422.978332,0,-1,-4,-2,1,0,2,13
1665978422.9889576,2,-4,3,1,-3,-4,19,10
1665978422.9910014,-1,0,-7,-13,-1,4,-8,-21
1665978422.9968898,7,-3,-4,7,0,9,15,29
1665978422.9991677,-13,17,3,-7,-1,-9,-12,-58
1665978423.001978,-4,14,3,-3,-2,-5,-15,5
1665978423.0040448,4,-7,-2,1,-4,6,28,-2
1665978423.0067735,8,-12,-5,5,-2,-5,0,15
1665978423.0089517,-1,5,16,-3,-2,-24,-6,-19
1665978423.011909,-1,-12,-10,-5,3,0,13,27
1665978423.0140111,-11,10,21,3,-2,6,-24,-34
1665978423.0183585,6,13,-4,2,-3,-6,-5,-6
1665978423.0203116,-11,12,-10,-5,-4,-1,-10,7
1665978423.0229225,-9,26,-8,-14,-8,-5,5,-25
1665978423.0249996,-13,9,-2,4,-5,-10,19,-13
1665978423.0278387,-8,17,0,-4,1,-1,11,19
1665978423.0297394,-15,14,-13,0,-1,4,-20,-5
1665978423.0324664,2,-2,2,0,-3,-14,15,3
1665978423.034288,-9,12,1,-2,6,4,-31,7
1665978423.0375028,-23,20,4,-1,-4,-6,-1,-12
1665978423.0394068,-1,-5,-7,-1,3,-8,6,3
1665978423.042078,-23,5,-10,-2,-6,-2,0,-41
1665978423.0441296,3,9,-11,-4,0,9,7,30
1665978423.0494347,-7,5,6,0,-2,-7,3,-25
1665978423.0514443,2,-3,2,1,2,7,-3,21
1665978423.0635507,0,13,2,1,-1,4,-4,5
1665978423.0654528,0,-5,2,1,0,-13,4,-12
1665978423.0720718,4,2,-3,-9,-1,-10,-2,9
1665978423.0738642,2,-12,2,3,3,23,8,17
1665978423.1095042,14,-1,-4,4,0,0,-19,-11
1665978423.1116147,-7,-4,-8,-3,-4,-11,4,4
1665978423.1170957,4,-7,5,2,-1,7,-6,6
1665978423.1191487,7,-1,-6,2,-5,-1,0,14
1665978423.1325572,-3,-7,-9,-6,-2,3,3,25
1665978423.1348712,16,-17,1,7,0,4,8,-49
1665978423.1385386,4,-12,-19,-8,-2,2,8,-10
1665978423.1406896,1,-8,-4,1,2,-5,8,14
1665978423.1455557,-10,22,13,3,0,10,-14,-15
1665978423.147574,-6,31,11,-2,6,-22,11,0
1665978423.154385,-9,43,4,-3,2,-4,3,-30
1665978423.1563551,-7,38,19,0,7,-1,-7,7
1665978423.1695418,-8,10,11,-6,4,6,7,-17
1665978423.1718764,6,-9,-9,2,-4,4,5,13
1665978423.1754363,4,-5,3,5,2,-5,-23,16
1665978423.1775098,-22,2,14,-3,2,-3,1,0
1665978423.1831107,5,-3,-7,-3,9,-12,0,15
1665978423.185138,3,7,10,-1,2,12,-1,18
1665978423.1925926,-3,-10,2,-3,4,6,7,2
1665978423.1946156,7,-10,3,-1,1,3,5,-14
1665978423.2069612,1,13,15,4,4,-7,-3,-14
1665978423.2090213,5,-5,-1,6,1,11,15,6
1665978423.212005,9,-39,-4,2,-3,-9,3,-15
1665978423.2138638,6,15,-1,2,2,-4,6,26
1665978423.2209215,-3,-37,11,3,1,-3,-32,-31
1665978423.2230618,-8,11,6,-1,9,2,-3,22
1665978423.225743,5,-17,10,4,0,4,14,24
1665978423.2281735,6,-15,-9,0,1,3,-14,-21
1665978423.245093,5,-5,12,3,-1,-38,16,26
1665978423.247226,1,-8,1,-3,6,4,3,-31
1665978423.2506588,7,-18,11,1,4,-2,9,11
1665978423.2526455,11,3,-1,-1,1,-11,1,10
1665978423.2595358,7,-38,-8,2,-1,17,10,-33
1665978423.2616408,14,14,0,6,4,2,2,25
1665978423.2649345,18,-48,-14,7,1,4,-2,22
1665978423.2669673,18,16,1,-6,-1,10,-4,-10
1665978423.2695074,10,-44,1,8,1,13,-12,10
1665978423.2714102,4,-12,-6,0,-7,1,2,-28
1665978423.2747555,5,16,-14,-5,1,19,-8,22
1665978423.2770426,4,-65,-5,3,-4,-3,-30,-39
1665978423.2803373,0,21,-3,-14,-4,2,-1,6
1665978423.282884,32,-54,-20,-7,-8,2,-5,-6
1665978423.2894177,0,-23,-3,8,-5,-3,-7,0
1665978423.2914546,11,-4,-2,-4,-6,-10,-18,7
1665978423.303253,5,-18,6,2,-7,1,-1,-12
1665978423.305235,-3,-67,-13,8,-5,0,-11,15
1665978423.3128774,-4,37,0,-13,-5,-1,-10,-31
1665978423.31487,10,-28,-17,10,-7,23,8,-13
1665978423.3180437,5,-43,-1,9,2,-1,11,25
1665978423.320153,-8,59,17,-10,3,5,-7,26
1665978423.3274858,-6,-42,10,4,0,-7,-42,-33
1665978423.3297465,-8,7,8,-2,2,-1,14,13
1665978423.340469,5,6,-9,2,-4,4,8,1
1665978423.3424964,-2,-23,-3,-2,0,-1,19,24
1665978423.3492928,-11,8,4,-6,-3,-1,-6,-36
1665978423.351387,-11,-3,7,-1,0,-15,-6,-16
1665978423.3636184,-4,2,-12,-4,-1,0,10,4
1665978423.3656642,-5,12,9,2,-3,-23,-5,13
1665978423.3720558,0,1,-8,-3,5,6,22,-19
1665978423.3741033,-12,1,-3,-6,-2,2,-4,-7
1665978423.3871415,4,14,4,1,1,-1,-11,12
1665978423.389118,-5,-9,12,0,-4,-10,-7,-14
1665978423.392973,9,6,-17,-3,-4,11,21,41
1665978423.3952305,5,-22,-15,-2,-6,-1,-10,-39
1665978423.4005556,0,14,-2,-6,2,2,-16,-2
1665978423.4025388,-8,4,2,0,2,5,1,-11
1665978423.4093745,5,0,-16,5,-4,-7,13,23
1665978423.4115477,-8,-1,6,-4,5,-11,18,18
1665978423.4231508,1,-9,-5,3,-4,-11,-7,-31
1665978423.4253657,2,-1,-9,-6,-4,-1,18,3
1665978423.4328763,-13,5,0,-6,2,-5,-29,-26
1665978423.4350276,5,-7,19,5,1,-7,5,27
1665978423.4471598,-2,5,-11,-5,4,-5,4,6
1665978423.4491801,-15,-2,17,1,4,1,-42,-18
1665978423.4525056,5,1,-4,-1,-5,-10,-35,-29
1665978423.4545355,9,0,9,0,1,-3,-5,5
1665978423.4612806,-1,1,1,2,-2,8,8,21
1665978423.4638882,-6,2,3,-1,1,11,-3,-45
1665978423.4692602,-1,5,5,-1,1,11,4,10
1665978423.4710586,2,5,8,-3,-3,0,2,-7
1665978423.4834135,2,-2,-2,1,-4,10,19,-17
1665978423.4854546,3,-5,-14,-2,-2,0,6,24
1665978423.49235,6,-1,12,-3,1,7,8,-8
1665978423.4946458,4,-1,-20,1,-3,-9,-9,3
1665978423.506951,0,5,13,0,3,-5,-1,-7
1665978423.5089662,13,-10,-16,-3,-2,9,6,-4
1665978423.5128026,-4,2,8,-5,2,-27,-10,3
1665978423.514942,-4,0,5,0,1,6,-16,13
1665978423.5206318,2,3,-5,4,1,-18,0,-8
1665978423.5227401,0,2,-6,-2,-1,0,-2,-1
1665978423.529793,-4,0,3,0,-2,1,14,15
1665978423.5317967,-3,-10,-20,0,-5,-1,-1,6
1665978423.5431864,1,-2,-5,-6,-3,16,-11,-25
1665978423.5453625,2,0,-12,-2,-4,-1,9,-14
1665978423.5519524,-1,-5,3,12,2,6,29,31
1665978423.5538366,-5,1,-3,4,0,-2,20,-26
1665978423.5671716,4,0,3,2,1,14,-6,4
1665978423.5691957,3,1,2,-4,0,-4,-2,25
1665978423.5725157,0,4,-4,-10,0,2,-22,-10
1665978423.5745785,1,1,-7,-5,2,8,-11,-7
1665978423.5813038,-2,0,-11,-4,0,2,-25,16
1665978423.5833478,-14,-5,2,2,1,9,16,28
1665978423.589436,0,4,8,-1,-3,-13,-41,-40
1665978423.5913532,0,-1,7,2,5,4,17,11
1665978423.603295,-2,4,-7,-2,-3,-2,1,6
1665978423.6053524,6,-1,-13,-4,-8,3,-11,-3
1665978423.6119437,4,3,-2,5,-3,-13,13,19
1665978423.6140068,0,-1,-17,-4,-3,4,-7,2
1665978423.627184,-3,2,-7,-7,-4,-2,8,2
1665978423.629382,1,-4,14,6,2,-8,-12,-2
1665978423.6328115,-2,-3,-15,0,1,3,13,0
1665978423.6346714,1,-4,8,-1,-4,-12,-38,-30
1665978423.640521,-10,6,-9,-7,0,-5,9,-9
1665978423.6425748,7,1,-3,-2,3,2,0,11
1665978423.6494684,6,-3,-3,1,-3,10,0,11
1665978423.6513767,-5,-3,-13,0,-1,1,12,-4
1665978423.6636422,-11,-6,-5,-7,-1,-1,0,-2
1665978423.665678,3,-3,-4,1,0,-11,-1,-18
1665978423.6717644,-12,2,12,-1,4,1,14,16
1665978423.6736445,-3,2,6,-2,-3,3,10,-5
1665978423.6872394,9,5,7,7,1,10,20,18
1665978423.6893196,-1,4,10,-3,-1,-9,-14,-39
1665978423.6929297,4,-6,-2,4,-1,5,12,33
1665978423.695151,-2,2,14,-1,3,7,7,8
1665978423.7004848,1,-6,-4,-3,-3,-6,-3,1
1665978423.7025485,-4,3,14,-2,2,-2,-16,13
1665978423.7096694,1,-7,2,4,-2,-5,-22,-56
1665978423.71198,9,1,-9,-1,-2,4,20,23
1665978423.755976,1,2,11,0,-4,3,-1,-1
1665978423.7579062,0,-1,-10,-1,-4,-3,2,-3
1665978423.7618206,-4,0,-12,-5,0,-10,6,19
1665978423.7640538,-2,-1,-8,-4,-6,0,-3,-29
1665978423.7678928,-4,-3,8,6,-2,-10,-8,4
1665978423.7697766,-1,-4,-10,0,2,-3,10,12
1665978423.7847703,-1,1,0,1,-1,3,7,15
1665978423.7867677,-6,-1,-1,-3,3,0,-1,-26
1665978423.7924178,8,3,-1,0,2,0,12,3
1665978423.7945411,-8,1,3,3,-7,-5,-4,6
1665978423.7983985,-5,-1,-13,2,-4,-12,4,14
1665978423.8003247,-13,-2,5,2,0,-5,-4,-4
1665978423.805463,-12,5,-6,9,-6,-4,13,5
1665978423.8075893,-4,2,-7,-5,-2,5,28,-8
1665978423.8146987,-4,2,4,-7,-1,4,25,11
1665978423.8167112,-7,1,-2,-9,-4,-8,-2,-13
1665978423.8304827,-11,2,10,-8,1,-5,-8,-1
1665978423.8329136,-12,-7,-1,-3,-2,8,-1,6
1665978423.8363338,-2,5,-8,-9,-6,-3,-21,-39
1665978423.8383422,-10,-4,-9,-8,4,5,-2,4
1665978423.84423,-2,-11,1,1,0,6,-14,2
1665978423.8466637,-11,15,3,-5,5,1,14,4
1665978423.849203,-8,-25,3,3,-3,-14,-12,-21
1665978423.8512545,2,16,8,1,2,-2,-2,22
1665978423.8663023,-1,-24,2,2,0,-4,-8,-7
1665978423.8683476,7,15,-13,-10,1,-7,-10,-8
1665978423.8712206,-8,-14,6,3,8,6,0,-34
1665978423.8733516,-1,8,2,-6,1,3,1,12
1665978423.876208,-5,1,-4,2,2,-11,-3,15
1665978423.878371,-14,-13,-2,-9,-3,-4,-9,-9
1665978423.881913,7,26,-1,-8,2,-1,8,30
1665978423.8839364,12,-31,-12,5,-7,-17,-18,-13
1665978423.8866498,-4,33,11,-6,3,7,-11,-20
1665978423.8884997,-9,-22,2,1,3,-8,-13,9
1665978423.8919168,-1,3,5,2,-1,-1,12,15
1665978423.8939872,-5,11,-1,-5,-2,-6,3,10
1665978423.9029863,-6,-25,-5,-2,5,3,4,17
1665978423.9050212,5,3,-8,9,-4,-9,0,-7
1665978423.9129827,1,15,6,-6,1,-8,-4,5
1665978423.914998,9,-20,-3,4,0,6,-2,4
1665978423.9274414,0,7,0,1,2,1,2,4
1665978423.9295442,1,2,-6,-4,-3,10,-16,0
1665978423.9332452,-10,-17,5,4,-1,-3,-9,2
1665978423.9350898,1,4,12,4,-1,2,-7,9
1665978423.940341,6,8,-9,-1,0,-6,11,0
1665978423.942426,3,-14,4,6,3,-5,-32,-6
1665978423.9495337,0,10,10,-3,0,9,2,3
1665978423.9515464,-14,-8,3,1,0,-10,2,-30
1665978423.9637074,6,5,2,-4,0,-8,6,6
1665978423.965721,6,8,17,-2,2,-9,-9,5
1665978423.9722216,-6,-14,-2,3,0,4,12,-31
1665978423.9742684,-11,9,-6,-7,-2,-28,6,33
1665978423.987181,-2,-6,-15,-8,-3,-4,-14,-52
1665978423.9892266,5,4,0,-1,3,7,12,3
1665978423.993052,5,0,2,-1,-2,6,-1,10
1665978423.995374,-4,-7,-11,3,5,14,13,-11
1665978424.00058,2,2,3,3,-6,2,7,3
1665978424.002646,-8,-6,-3,-2,-2,-4,-17,-9
1665978424.0098171,-2,2,-4,-4,0,2,-24,-4
1665978424.0119812,-2,0,0,-1,3,10,-3,7
1665978424.0229063,-3,-12,1,-2,-3,0,9,10
1665978424.0249038,-10,4,0,-6,-6,1,21,-22
1665978424.0324554,-2,-7,-6,-1,0,0,-6,-14
1665978424.034463,-6,0,7,-3,-2,4,-17,-1
1665978424.0478547,-9,3,-7,-2,0,4,3,6
1665978424.0498388,-5,-3,1,1,-5,-7,17,6
1665978424.0533834,4,3,-14,-7,3,-3,4,10
1665978424.0554311,-6,1,1,3,-9,-5,19,-36
1665978424.0608835,-8,-3,1,-4,-2,3,4,-4
1665978424.0629418,-1,2,9,3,-2,-17,-14,3
1665978424.0696013,1,-3,-1,0,1,2,16,26
1665978424.0715573,5,8,2,2,-4,9,9,11
1665978424.0833108,7,-3,4,0,0,-4,-13,-16
1665978424.0853543,-1,-1,-10,-1,-1,-14,-14,6
1665978424.0923653,-5,-1,4,1,2,3,-7,-10
1665978424.0945764,10,-2,3,1,2,-5,-16,6
1665978424.1071482,-2,1,-9,-6,1,2,-8,5
1665978424.1093802,-1,0,8,-1,2,1,-1,-17
1665978424.113052,0,-1,0,3,-3,-19,-3,19
1665978424.1149375,-9,1,8,1,1,-3,-9,-32
1665978424.1204934,4,0,5,5,2,-6,-6,-5
1665978424.1223903,2,1,-12,-3,-5,11,20,4
1665978424.129936,6,-1,4,2,-2,-1,-7,18
1665978424.1318786,-6,-1,-5,-2,2,-11,-17,-40
1665978424.1431358,-3,3,-3,-4,-3,0,2,12
1665978424.1452553,2,-6,-11,0,2,7,8,0
1665978424.1519835,-1,1,5,0,-2,3,-4,-3
1665978424.1538422,0,-2,-7,-4,-2,11,-9,23
1665978424.1671982,0,-4,-4,-3,-2,-3,-24,-11
1665978424.1692836,3,1,6,3,1,4,-2,10
1665978424.172687,-7,5,-1,-4,3,-6,-11,-10
1665978424.1746554,4,-4,-7,-2,-2,-5,9,17
1665978424.1814299,-6,-2,2,0,-2,3,-2,-4
1665978424.1836247,2,7,3,2,-1,-8,17,20
1665978424.1895907,-11,-1,-2,-4,-6,1,11,-9
1665978424.191552,-15,2,-2,-3,-3,-11,3,-29
1665978424.2032912,0,1,1,-2,2,-1,10,10
1665978424.2053344,-4,1,-12,-2,-2,0,-10,-16
1665978424.2120614,4,-3,-3,-1,-5,-1,-9,0
1665978424.213998,0,2,-5,-5,2,-6,7,10
1665978424.2256231,6,1,0,2,0,-2,-15,18
1665978424.227799,-6,2,-11,-6,-1,3,-7,-25
1665978424.234398,-2,-2,-7,0,-3,3,13,-2
1665978424.236359,3,1,-1,1,1,10,4,14
1665978424.240334,-2,-1,-3,0,-2,-8,0,-6
1665978424.242443,-2,-5,7,-4,2,-1,-4,4
1665978424.249611,5,3,3,0,-5,-7,-5,11
1665978424.2516904,2,-2,-1,-2,-5,-4,-10,-6
1665978424.2634964,-3,3,-3,-1,-1,-1,-11,0
1665978424.2655394,4,-7,9,2,-1,7,-2,-4
1665978424.272123,9,-8,-3,-1,-2,12,12,7
1665978424.2741733,-3,-4,-7,1,-2,9,-14,-10
1665978424.2964406,-3,3,7,1,-2,-11,4,-17
1665978424.2984612,-3,-3,-7,-3,-2,4,-6,8
1665978424.3018067,-1,0,-4,-1,-1,-3,3,-9
1665978424.3037932,2,-4,5,1,2,-2,-1,11
1665978424.3097792,-2,2,2,0,1,-5,4,-2
1665978424.312027,-4,-2,0,1,-1,9,14,-16
1665978424.3155856,-4,-1,0,-3,-2,-19,12,12
1665978424.317528,-6,2,6,-3,4,-5,-34,-25
1665978424.3557756,8,2,1,-1,-1,0,14,12
1665978424.3578176,4,1,-1,2,1,-6,-3,8
1665978424.3621445,-2,2,-5,2,0,1,-4,-8
1665978424.3640978,10,-3,-1,0,-1,7,4,23
1665978424.385041,3,-4,-2,3,-1,2,-6,-9
1665978424.3871052,-3,2,4,0,-6,-4,-6,-10
1665978424.3908367,2,-1,-7,-1,4,11,3,-5
1665978424.392946,3,6,3,-3,-6,-8,13,14
1665978424.395743,-12,0,-15,-4,2,2,-3,-22
1665978424.3976398,12,0,-5,4,-4,-3,-9,16
1665978424.401038,8,-12,1,4,-1,7,-8,-20
1665978424.4031236,1,-6,-7,0,-3,-17,-1,-1
1665978424.4151638,12,-9,-8,2,-4,1,-1,1
1665978424.417044,0,-7,-1,-4,-3,1,-6,-19
1665978424.4204946,7,-9,-7,1,-2,0,-8,2
1665978424.4226537,3,-5,-8,0,-5,-3,-12,0
1665978424.4300647,4,-12,-3,-4,-4,-5,-21,-1
1665978424.4321437,6,-11,-4,0,2,1,-1,-1
1665978424.4356525,5,-8,-7,-2,-3,-3,4,1
1665978424.437661,7,-6,-9,-2,-5,3,6,-4
1665978424.443425,3,-12,-10,4,-8,-4,0,1
1665978424.445921,4,-12,-10,-3,-14,-7,-6,5
1665978424.4515738,-4,-11,-11,2,-3,-7,-8,-12
1665978424.4532993,14,-11,-24,-4,-8,9,7,16
1665978424.4666188,2,-12,-7,0,-2,0,1,2
1665978424.468517,1,-8,-4,-4,-5,0,-3,2
1665978424.471109,5,-8,-1,5,-7,-5,4,1
1665978424.473015,8,-14,-14,-3,-6,5,4,-5
1665978424.4824548,5,-5,-2,5,-3,3,6,7
1665978424.4843495,-3,-11,-10,-2,-5,-1,-13,-23
1665978424.4876595,0,-3,-3,-6,-8,-3,-4,0
1665978424.4895778,-3,-6,-11,3,-1,-7,-11,5
1665978424.5046985,-2,0,-5,-9,-6,-2,-4,-4
1665978424.506758,-2,4,7,-3,1,-2,3,-3
1665978424.510103,-2,-9,-18,-2,-3,-2,-18,-36
1665978424.5121114,0,-1,7,-3,-3,1,2,-5
1665978424.5194967,-9,3,1,1,-4,-5,-9,-2
1665978424.5216093,-5,2,-12,2,0,4,-2,8
1665978424.5249248,-12,-11,-2,-10,-3,-1,-7,-6
1665978424.5270164,-6,1,3,5,0,-4,9,-1
1665978424.5428267,-8,2,-4,-1,-1,7,3,-11
1665978424.5449107,-1,0,-3,-6,-7,2,-6,1
1665978424.5488465,-9,2,2,-3,-1,-3,-4,9
1665978424.5511236,-9,3,0,1,2,7,7,5
1665978424.5571215,-1,-2,-5,-13,-5,3,-19,-8
1665978424.559189,-11,4,7,0,-5,-6,-2,7
1665978424.5627022,-8,12,3,4,-1,-6,-8,-6
1665978424.5646894,-5,1,-5,-10,-4,-3,-10,8
1665978424.5800672,-6,-1,6,-7,-2,-14,-5,11
1665978424.5820012,-3,6,3,2,3,3,-3,-20
1665978424.5855534,-1,2,-4,1,2,-8,3,4
1665978424.5878518,-7,-6,3,-13,-6,-2,0,-4
1665978424.5946891,-6,-1,0,4,0,3,10,3
1665978424.5968459,1,-2,-3,10,4,4,-2,12
1665978424.6008132,-2,-11,-4,-8,-2,-6,5,0
1665978424.6027732,0,0,0,-6,-4,0,-5,3
1665978424.617198,-2,3,8,0,-1,-5,11,23
1665978424.6192048,0,-3,-3,6,3,9,-7,-13
1665978424.6225162,-3,-8,-6,-6,3,5,2,5
1665978424.6245308,-8,5,4,-8,-4,0,-29,-16
1665978424.639994,-2,4,5,4,-2,2,2,-4
1665978424.64217,-6,0,-2,-5,2,-6,-5,3
1665978424.645668,4,5,4,6,2,7,4,5
1665978424.647818,-2,-3,3,-4,-3,-3,2,0
1665978424.6539762,-9,2,0,-12,-6,-10,1,-20
1665978424.6560066,-3,3,5,-4,-3,-6,12,22
1665978424.6613061,-4,-5,-6,8,4,-3,-15,-23
1665978424.6635017,-2,-3,0,4,3,-3,8,10
1665978424.677992,3,-6,1,-9,1,5,7,-7
1665978424.6801925,0,-6,4,-5,-4,-17,7,-4
1665978424.683926,-2,10,-4,0,-3,5,9,13
1665978424.685854,2,-3,-1,12,4,-2,25,1
1665978424.7002707,-2,-9,-5,2,6,-1,-14,-6
1665978424.702325,0,1,-7,-12,-5,-6,3,12
1665978424.7058406,3,-2,5,-11,-8,1,8,20
1665978424.7082224,2,-10,2,4,-1,2,4,-11
1665978424.7136471,7,-1,-5,11,8,10,2,6
1665978424.7158058,0,-7,-9,5,5,2,2,2
1665978424.7303874,-5,-1,-1,-7,-3,2,-15,-8
1665978424.7323942,-2,4,2,-6,-2,-4,2,5
1665978424.7370112,-8,-1,-2,-10,-9,-2,-7,-8
1665978424.7391033,-5,0,-5,-5,-5,2,-12,-15
1665978424.7427022,4,8,3,7,-2,3,-4,10
1665978424.7448957,-1,2,-8,11,1,-12,-11,-6
1665978424.7597954,-6,-6,-6,9,3,-3,11,-3
1665978424.7618175,-4,-1,0,-1,4,-2,-3,-27
1665978424.7653067,-5,1,2,-10,-2,-3,1,-4
1665978424.767329,-2,-4,6,-6,-2,7,5,14
1665978424.773249,2,5,0,-3,-5,4,-1,5
1665978424.7752707,-4,2,-13,-5,-5,0,9,13
1665978424.7824194,-10,5,3,2,1,5,7,0
1665978424.7845128,7,3,0,4,4,5,-2,5
1665978424.7977188,-2,-3,-4,4,1,-1,4,-18
1665978424.7997627,3,-7,0,8,5,-3,20,-2
1665978424.8032587,2,-1,-4,1,1,0,-6,-15
1665978424.8053386,5,0,-3,6,2,-1,-2,-12
1665978424.8198853,-5,-14,-3,4,7,0,-10,-2
1665978424.8219445,0,-6,-2,2,5,-3,-4,0
1665978424.825601,3,1,0,2,0,-3,-20,2
1665978424.8279407,-5,5,-3,-1,1,2,10,-4
1665978424.8333535,8,-7,-5,-6,-4,1,-5,-5
1665978424.835388,-1,1,4,-11,-5,4,-3,3
1665978424.844452,-3,-6,3,-13,-4,-5,5,-4
1665978424.8475125,-11,-4,3,-22,-10,5,-9,-7
1665978424.8578954,0,5,-2,-15,-6,-4,7,-5
1665978424.859924,-2,2,7,-16,-8,9,-4,9
1665978424.8631556,-4,2,5,-6,-7,3,7,13
1665978424.8650424,-3,7,5,-5,-4,8,-1,7
1665978424.8811815,-1,6,6,-3,0,-3,-4,7
1665978424.8845887,-3,2,9,1,-1,-2,-6,-8
1665978424.8880823,0,9,1,0,0,5,12,9
1665978424.890016,-5,9,5,2,2,-3,4,-19
1665978424.892968,-2,9,10,-1,-4,2,14,-8
1665978424.8949387,-2,5,1,0,0,-4,7,15
1665978424.90213,-7,5,2,-2,1,8,-4,-13
1665978424.903993,2,4,5,-2,-2,-10,6,14
1665978424.917181,-3,3,-1,7,1,1,13,10
1665978424.9193213,-4,10,5,2,-2,2,0,-6
1665978424.9228215,-1,9,4,-6,1,-9,2,10
1665978424.924919,-4,3,6,3,-2,6,0,-3
1665978424.9396534,-9,11,2,-4,1,7,-11,-13
1665978424.9415276,-6,6,5,-3,1,-6,-11,6
1665978424.94487,1,1,5,-1,-3,-1,8,-1
1665978424.9471178,0,4,4,-6,-3,1,2,-1
1665978424.953098,3,-2,5,-6,-2,-6,-6,13
1665978424.9549937,-2,-7,-5,-5,-7,4,1,3
1665978424.963081,11,-5,3,-7,-2,7,4,14
1665978424.9657366,-5,4,2,-5,-2,-3,0,-37
1665978424.977378,8,-4,-2,-7,-1,-11,1,14
1665978424.979482,6,-1,4,0,0,0,2,-11
1665978424.9831376,1,-6,-1,-2,-4,-4,-4,-7
1665978424.9850183,0,-10,-4,-1,3,-1,-4,-3
1665978424.9999335,-4,3,2,2,2,0,-7,-1
1665978425.001989,4,-5,-3,3,4,4,-3,-6
1665978425.0053906,0,-11,-5,8,9,0,-1,-1
1665978425.0073783,3,-7,-7,15,10,7,-5,8
1665978425.0138419,2,-3,-8,11,9,-1,-5,-1
1665978425.0161526,5,-8,-7,14,9,-13,4,3
1665978425.0218937,4,-3,-6,18,12,1,2,-1
1665978425.0238874,6,-3,-4,11,6,-3,3,-5
1665978425.0380561,-3,1,2,9,3,-1,0,1
1665978425.0400624,4,5,5,2,-2,3,1,1
1665978425.0437648,5,3,-5,-3,-5,1,0,-14
1665978425.0459864,8,2,0,-3,-7,-4,1,9
1665978425.0598998,8,1,7,-6,-10,2,2,1
1665978425.0620875,4,-5,-5,-14,-6,0,1,-1
1665978425.0658357,0,-6,6,-8,-6,-6,-8,-4
1665978425.0678155,5,-8,-5,-5,-4,-4,1,11
1665978425.073162,11,-17,-2,5,-1,2,-6,-5
1665978425.075385,0,-17,-7,9,9,-3,-4,-1
1665978425.082842,4,-8,0,9,11,-8,-7,-12
1665978425.0848885,7,-15,-8,12,11,2,-2,5
1665978425.0978835,7,-1,-8,7,2,-1,-1,-5
1665978425.099954,10,1,-9,8,-3,0,-3,0
1665978425.1033556,3,4,-1,-5,-7,-4,-1,-1
1665978425.1053157,4,8,3,-5,-11,2,0,6
1665978425.1198883,-6,5,0,-10,-9,-1,-3,-3
1665978425.1218743,3,-8,-2,-7,-7,3,-4,-2
1665978425.1256144,0,-8,-7,0,-1,2,-2,-5
1665978425.1278157,3,-23,-5,6,7,-3,-6,1
1665978425.1335094,6,-14,-8,11,6,-5,4,0
1665978425.1356184,5,-4,1,12,5,0,-6,-3
1665978425.1425488,5,1,-1,8,2,0,-4,-3
1665978425.1446748,0,10,0,-7,-9,-12,-2,3
1665978425.1571426,2,10,-2,-11,-12,-1,-4,-4
1665978425.1593213,2,1,8,-10,-10,-4,-3,-1
1665978425.1632338,5,-9,-5,-4,-5,-3,-5,-1
1665978425.1653166,3,-22,-14,4,2,-4,-10,-2
1665978425.1810913,-2,-22,-9,8,3,-6,-6,-2
1665978425.1832476,2,-19,-20,8,-1,-4,-1,-1
1665978425.1866927,0,-10,-19,0,-5,-3,-15,-10
1665978425.1885247,3,23,-3,-9,-14,0,-1,1
1665978425.1912203,0,-8,-7,-11,-17,2,-2,-6
1665978425.1932573,1,5,4,-6,-9,-1,-4,0
1665978425.1968808,2,-11,-27,-2,-4,-1,-2,0
1665978425.198955,-1,-20,-13,6,2,-6,-1,0
1665978425.208895,-1,-35,-25,5,5,-3,-14,-12
1665978425.2109997,-2,-4,-8,5,0,-4,0,-5
1665978425.2172322,-2,8,20,0,-10,-3,-2,-5
1665978425.219285,2,10,-2,-10,-10,-2,-3,-1
1665978425.223227,-2,-3,-19,-10,-6,-1,3,0
1665978425.2252936,-5,6,9,-10,-6,1,-3,0
1665978425.2325678,-4,-4,-30,-1,-1,-1,4,-12
1665978425.2346623,-4,-26,16,5,3,-2,1,-1
1665978425.2457707,-2,14,-6,-2,3,2,-1,2
1665978425.2479181,-2,1,-18,-3,-5,-4,-7,-6
1665978425.2545846,0,-1,-17,-1,2,0,3,4
1665978425.2564957,3,3,23,3,-5,-3,0,-3
1665978425.269108,2,6,-11,5,1,1,-2,-1
1665978425.2711952,-3,-8,-1,1,0,2,0,-1
1665978425.2760384,-1,-2,-11,-2,3,4,0,6
1665978425.2783477,-3,2,-21,-2,-2,2,0,-2
1665978425.2832797,-2,10,19,0,-2,0,-3,2
1665978425.2852383,-1,-5,15,1,-1,3,-4,-3
1665978425.2921107,-3,0,-21,-1,0,0,-2,5
1665978425.2952309,0,13,4,2,2,-1,1,-3
1665978425.3059154,10,-13,10,2,0,-5,-1,5
1665978425.3079515,-6,-12,-17,1,1,0,-1,-2
1665978425.3152614,-4,11,29,0,-2,-4,-5,0
1665978425.3172355,-3,-3,9,4,3,2,-3,0
1665978425.3299508,-9,7,-18,-5,-6,-4,-1,-7
1665978425.3320596,2,2,-15,-4,0,0,4,-1
1665978425.3356442,0,0,7,-1,-2,-7,0,0
1665978425.3376713,1,8,-8,-3,4,3,-2,-4
1665978425.3522708,-10,-3,-2,3,-4,-3,-1,-6
1665978425.3544297,3,17,-30,0,0,-1,0,0
1665978425.358343,-3,1,18,2,-2,1,2,2
1665978425.361679,-5,-4,-7,-2,-3,-2,1,0
1665978425.3657572,-5,9,1,0,1,0,7,0
1665978425.36777,-4,-6,-4,-3,0,-3,1,2
1665978425.3747056,0,-7,13,-5,-1,-1,0,-4
1665978425.3769357,6,-6,-13,1,1,1,-4,2
1665978425.3890846,0,-9,6,-2,0,-4,2,1
1665978425.3911068,7,-5,13,4,-3,2,-1,5
1665978425.3962646,8,-6,-7,2,-4,1,-3,-3
1665978425.3985968,-8,-7,-2,-3,-1,-3,-4,-1
1665978425.4126756,-3,12,12,-5,3,-1,2,0
1665978425.4147744,4,-8,6,1,-1,-3,-2,-4
1665978425.4182682,-3,-9,0,-3,-1,-3,1,3
1665978425.4201882,2,1,0,0,-1,-2,3,-4
1665978425.4258869,7,-1,-9,1,-1,1,-5,2
1665978425.428049,-2,3,22,-2,1,-2,-3,-4
1665978425.4349616,4,-9,-5,-1,-4,1,-3,-1
1665978425.436867,-3,-8,-31,1,2,-1,-1,1
1665978425.449545,2,-5,13,0,2,-5,-1,6
1665978425.4516454,2,-9,2,-2,2,-1,1,-3
1665978425.455856,-4,-3,9,2,-1,-2,-2,-2
1665978425.4577444,3,2,4,-2,-5,0,-2,1
1665978425.4723988,5,-1,2,1,-1,0,-3,2
1665978425.4751034,6,-4,-9,-1,-2,1,0,2
1665978425.4789927,-6,-2,13,-2,1,-5,1,-5
1665978425.4813097,-1,-2,-1,0,2,-4,0,-2
1665978425.48584,6,-11,-7,-1,-2,-1,-5,-3
1665978425.4879448,1,4,14,-1,-1,0,-2,-4
1665978425.4952824,0,3,5,-2,-1,0,3,3
1665978425.497559,7,-11,7,4,-1,-5,0,0
1665978425.5090811,-10,-9,-2,0,-2,5,1,3
1665978425.5112016,-7,-6,0,-1,-2,-1,-1,-1
1665978425.5160966,0,-8,-5,0,0,0,-3,-1
1665978425.5182288,-3,-2,-4,-5,1,2,-4,0
1665978425.5324438,2,-2,4,1,-3,-4,-1,-1
1665978425.534451,-3,-2,4,1,0,-3,0,-2
1665978425.537934,2,-4,-9,-2,2,-3,-1,-5
1665978425.540035,-1,-3,-3,-2,1,-2,-1,0
1665978425.5462856,-3,3,2,-1,1,1,1,-3
1665978425.5483394,-5,-1,-5,-2,-3,-2,1,-2
1665978425.5549648,1,1,-3,3,2,2,-1,0
1665978425.5570376,5,-2,0,-2,-2,1,-2,-3
1665978425.56932,-1,7,3,0,1,-5,1,1
1665978425.5714023,-7,10,-3,-1,3,-1,-3,-2
1665978425.576165,2,2,-3,-2,-3,-2,1,-3
1665978425.5783887,-9,0,10,-2,-2,-1,-3,-5
1665978425.5923755,1,9,0,0,-2,1,-1,-3
1665978425.5943506,1,4,0,1,-4,0,-3,-1
1665978425.5976295,2,-4,-7,2,0,-3,2,1
1665978425.5995944,6,6,4,-3,-1,0,0,-1
1665978425.6056654,3,-8,2,0,-1,2,-2,-1
1665978425.6076684,-2,-9,-12,-3,-1,-1,-1,-1
1665978425.6150258,5,12,-9,-3,-6,0,-1,-1
1665978425.6174965,1,3,1,0,-3,-2,1,3
1665978425.6369264,-1,-1,-1,-1,-2,-3,-1,1
1665978425.638961,1,7,-3,-1,-3,-1,0,1
1665978425.642376,-19,-3,3,1,-1,-1,2,-5
1665978425.6446445,-5,0,-4,-3,0,1,0,-1
1665978425.6527205,1,-1,0,-1,-1,-1,-1,-6
1665978425.6550114,2,4,4,2,0,-3,-1,-2
1665978425.6588185,1,-1,-1,1,2,-3,0,-1
1665978425.6610315,-4,-4,0,-1,-1,-1,-4,-3
1665978425.6657968,3,2,-2,1,3,-1,-1,2
1665978425.6678324,3,-4,-5,-3,-1,-3,-1,-2
1665978425.6833277,5,0,0,-3,-2,-3,-2,2
1665978425.6852996,2,-5,1,1,0,-3,2,-4
1665978425.6890748,-1,-1,-2,0,-3,-1,-3,-4
1665978425.6909518,0,-1,-9,-1,3,-2,-5,-2
1665978425.6959422,2,3,7,0,-2,0,-2,5
1665978425.6977942,-8,0,-3,3,-3,1,0,-4
1665978425.713089,-5,1,0,1,-6,1,-1,-2
1665978425.7152212,-4,8,6,-4,0,-3,-3,-3
1665978425.7186635,-1,-8,-3,-1,1,-3,-1,1
1665978425.7206764,4,-1,-2,-4,-1,-6,-2,-1
1665978425.7259228,2,-13,0,1,-1,1,-3,-5
1665978425.7284262,1,-3,-2,2,1,0,3,0
1665978425.734996,0,-5,-16,-4,-1,3,-2,-3
1665978425.7371502,8,-3,-1,-1,1,1,2,2
1665978425.7491732,4,3,-4,-1,0,-2,0,2
1665978425.751231,1,-7,3,0,-6,4,-1,1
1665978425.7559834,-3,2,0,-1,1,-2,-2,-2
1665978425.7580104,-6,-1,-7,1,-5,0,-3,-3
1665978425.7724776,-5,4,-2,-3,-2,-1,-2,3
1665978425.7746508,2,-3,-1,-3,-2,-3,-1,-1
1665978425.778246,7,-8,4,4,-3,-1,-3,3
1665978425.7809286,-2,-4,-4,-4,-1,-1,-1,-1
1665978425.7857165,-1,7,0,1,4,0,0,-2
1665978425.7877755,2,-9,-2,3,0,-2,0,3
1665978425.795164,-1,-4,-1,0,-2,1,5,-2
1665978425.7973492,0,-8,-3,1,0,3,-5,-3
1665978425.809404,-4,0,-5,-6,0,-1,0,-4
1665978425.811751,4,-4,-3,2,-2,2,2,-2
1665978425.8158941,6,-5,-9,0,2,-2,-2,0
1665978425.8179154,4,-6,1,0,-4,-2,-2,3
1665978425.8324163,-2,-3,1,-6,-2,1,-2,-3
1665978425.834574,-5,-3,-2,-2,0,2,-1,2
1665978425.837981,-6,-4,3,-2,-1,-5,-5,1
1665978425.8399754,-4,1,3,0,0,2,2,0
1665978425.8461661,3,-3,0,6,0,-5,-2,-4
1665978425.8481917,-3,4,1,-1,-3,-4,0,-3
1665978425.8547702,-2,4,4,-4,0,1,0,1
1665978425.8567688,4,4,0,0,0,-1,-1,1
1665978425.8688898,-5,-3,-4,0,-3,-3,0,-4
1665978425.8707778,-8,5,2,1,-1,-2,1,0
1665978425.875768,-1,1,-2,0,0,-1,-4,0
1665978425.8780057,6,2,4,0,1,-1,0,-2
1665978425.892189,-2,0,-9,1,0,2,-2,2
1665978425.894614,-1,-2,5,1,-2,2,-1,-2
1665978425.8980024,2,-3,-3,1,-2,-2,-1,1
1665978425.8999574,5,-4,-8,-3,-6,2,-3,-1
1665978425.905802,4,-7,-2,-2,-3,1,0,-1
1665978425.912517,11,-16,-7,-2,1,-5,-1,6
1665978425.9160724,-4,2,1,0,-4,-2,1,-9
1665978425.9180756,-4,-1,0,-3,3,5,-2,-1
1665978425.9294782,2,5,4,1,-2,-4,-2,3
1665978425.9317915,3,-4,-4,-1,2,-4,-3,-4
1665978425.9356558,-6,1,6,-4,-1,3,-1,-2
1665978425.9375615,0,-8,-13,-1,1,0,3,4
1665978425.960026,4,-11,6,-3,-3,1,2,5
1665978425.9625947,7,1,-1,0,1,-2,-2,-4
1665978425.9660785,0,1,-6,0,-1,3,0,-1
1665978425.968128,-3,1,-6,-2,-3,-7,-5,-5
1665978425.9708943,0,-11,-8,-5,1,1,-1,-1
1665978425.9730792,16,-9,-4,1,-1,-2,1,3
1665978425.9767346,13,-14,-5,-1,1,2,0,1
1665978425.978962,-5,-2,-2,-1,0,-1,-1,-5
1665978425.9889388,-2,-2,5,1,-1,-3,-3,-2
1665978425.9909678,-5,-3,4,1,0,1,1,0
1665978425.9957883,-6,-6,-5,0,1,0,0,2
1665978425.9978602,-1,-4,3,-1,-3,-4,1,3
1665978426.0126252,-3,3,-1,-2,0,2,-1,1
1665978426.0148346,-6,-1,-3,-2,0,-1,-1,-2
1665978426.0181026,6,5,-4,2,-2,0,-1,0
1665978426.0200036,-1,0,3,-3,-1,-2,-4,3
1665978426.0259545,5,-2,-7,5,-2,-1,-1,-1
1665978426.0280006,-4,6,-1,-1,-2,-3,1,-4
1665978426.0347826,-1,-1,3,-4,-2,-1,1,-5
1665978426.0366733,-1,6,-5,-2,-2,0,-2,-3
1665978426.0493798,7,-8,2,-1,-3,-2,-2,0
1665978426.051531,-4,-5,-9,-1,-2,0,-2,1
1665978426.0559025,-6,-3,8,2,2,-2,0,-2
1665978426.0577803,0,-5,-5,-1,0,-2,-1,-4
1665978426.0725698,0,1,-1,-1,1,-2,-4,-4
1665978426.0749333,-12,-1,2,-6,0,1,1,-3
1665978426.078388,-8,-4,-2,-5,-3,1,-4,-3
1665978426.080599,-1,-1,2,-1,-3,2,0,2
1665978426.0858598,2,-1,1,1,2,1,2,2
1665978426.0878096,-1,1,-1,-2,-2,1,-4,-2
1665978426.095152,5,3,-4,-4,0,-4,-4,-2
1665978426.0975266,-3,2,-2,0,-2,-3,-2,-3
1665978426.1089954,-3,-1,1,-1,1,-4,-2,-3
1665978426.1109023,-5,12,-1,2,0,-2,-1,-3
1665978426.115711,5,1,1,-2,-3,-3,0,2
1665978426.1175177,0,-1,0,-2,-1,0,-1,-4
1665978426.1330285,1,6,1,0,-2,-5,-1,-1
1665978426.1352534,-3,-1,-5,-3,-4,-2,-3,0
1665978426.1387026,-2,-2,-3,1,0,-2,0,-3
1665978426.1407611,-4,-5,2,1,0,-1,-2,-2
1665978426.1462548,-7,0,3,0,0,2,0,-1
1665978426.1483057,1,-5,3,-2,0,-3,0,0
1665978426.1549375,-5,2,-4,-2,1,1,2,-1
1665978426.1568766,-6,-2,0,2,-2,-2,0,-2
1665978426.1694365,-4,0,-4,0,-6,-4,-2,-1
1665978426.1714787,0,-1,3,0,1,2,1,5
1665978426.176049,1,-5,-1,-3,-4,1,-1,-1
1665978426.1783717,6,0,0,-1,2,-1,-1,3
1665978426.1925268,-6,2,1,-4,-1,1,1,0
1665978426.194768,2,-1,-3,0,-1,-1,-1,1
1665978426.198327,-6,7,4,1,-1,-3,-5,-9
1665978426.2003958,20,10,-3,-1,-3,-1,0,5
1665978426.20569,1,0,-3,-6,0,0,-2,1
1665978426.2077675,-3,7,0,3,-1,-1,-1,-1
1665978426.2156222,-4,5,-1,1,0,-1,-2,-1
1665978426.2175934,-6,4,3,-1,-1,1,-1,-5
1665978426.2296214,3,-15,-9,-2,4,-2,0,1
1665978426.2318416,2,0,6,1,-2,0,-3,-3
1665978426.235734,-1,1,7,3,2,-1,2,1
1665978426.2377625,-8,-9,9,1,-4,-2,2,2
1665978426.2517593,-3,3,1,-1,-2,2,0,-2
1665978426.2538266,-3,-4,-5,-4,2,2,-2,-3
1665978426.2584512,-1,5,-1,-4,-4,-4,-4,1
1665978426.2606025,6,-9,-2,3,-1,2,-1,0
1665978426.2749932,3,-2,-6,3,1,3,1,0
1665978426.2772295,-2,1,1,-3,-3,1,-7,-2
1665978426.2808294,2,-2,-8,-2,-2,-2,0,1
1665978426.2830238,1,-6,2,-2,-3,-2,-1,-4
1665978426.2889862,-2,4,6,1,-1,0,-1,-6
1665978426.2910647,4,-9,-20,-2,-1,-5,-2,2
1665978426.2964203,-8,2,6,0,-3,-4,3,-1
1665978426.298627,-1,2,-2,1,0,2,0,-2
1665978426.3124413,-6,3,-1,-5,-1,-3,-1,-1
1665978426.3146563,1,6,6,1,1,-3,0,-1
1665978426.3185005,6,-1,-4,-3,1,-1,-1,4
1665978426.3205895,-6,-2,-3,3,0,-2,0,-4
1665978426.3362725,2,-7,-5,-2,-2,-2,-4,-3
1665978426.3392045,0,-3,4,0,-3,-4,4,1
1665978426.3427775,-1,-5,-3,-1,-4,1,0,1
1665978426.3449497,-4,-2,-5,-2,2,1,0,-5
1665978426.3502414,-2,9,1,-2,-4,-3,-1,-1
1665978426.352384,-1,-2,5,-1,-3,-4,-1,-2
1665978426.3559248,-1,-7,-6,-4,2,3,-2,1
1665978426.358093,-4,-2,-1,1,-2,-3,-4,-3
1665978426.3718371,-10,-3,-8,-3,-1,-2,-1,-5
1665978426.3739007,4,0,-17,0,0,0,0,-1
1665978426.3789005,1,0,5,3,-1,-1,1,1
1665978426.3815787,2,0,-9,-2,-2,-1,-3,1
1665978426.395091,5,-1,-2,1,-1,0,-2,1
1665978426.3972247,-2,-6,1,0,-2,3,0,-2
1665978426.4020078,-3,-4,-13,-3,2,2,0,-2
1665978426.4043229,-8,4,4,-3,2,1,-2,3
1665978426.4090073,10,-9,1,2,-6,-8,2,5
1665978426.411072,-3,1,1,-3,0,3,0,1
1665978426.4166343,-1,-6,-1,2,-1,-2,-4,-4
1665978426.4189322,-6,-1,1,-3,2,2,3,-2
1665978426.4328065,-4,-7,-2,1,-5,3,-2,-3
1665978426.4354193,0,2,-3,-2,2,-3,-2,-2
1665978426.4392803,-5,4,-3,1,2,0,0,-1
1665978426.4413927,-1,6,6,3,-4,-2,-3,-4
1665978426.4550428,-6,-3,-12,2,0,0,-4,-1
1665978426.4571986,-6,5,7,-1,-3,-5,0,-2
1665978426.4608927,1,-5,1,0,-4,3,-2,-1
1665978426.4634726,-5,1,3,-3,1,-2,-1,-3
1665978426.469685,1,1,-4,1,1,0,-1,4
1665978426.4718595,-9,3,5,1,-6,3,-3,-3
1665978426.4758065,24,-7,-2,2,0,-10,3,2
1665978426.4776287,6,-5,-10,-4,-3,-11,-3,0
1665978426.4922678,-3,-2,4,-1,2,-4,0,-1
1665978426.4943738,-5,2,-6,1,0,-2,0,-3
1665978426.49848,-2,2,-5,-3,-3,1,-3,3
1665978426.5005047,3,-6,-2,1,-4,-3,2,1
1665978426.5164254,-14,4,-2,-1,-3,1,-1,-10
1665978426.518809,-4,5,-1,-4,2,-2,-4,-1
1665978426.5237148,1,-7,-2,3,-3,2,-3,-1
1665978426.5264666,-3,5,3,-4,1,2,3,2
1665978426.5296805,-5,5,-5,-1,-2,1,-2,-3
1665978426.5316064,0,-14,5,0,-2,3,1,5
1665978426.5373805,-8,1,-1,-3,-1,1,0,-3
1665978426.5394182,-3,-5,-8,-4,-3,-1,-3,1
1665978426.551768,2,-3,3,1,2,2,1,0
1665978426.5540826,5,-7,-5,-3,-2,-4,1,-2
1665978426.560211,5,11,-1,-2,-3,-7,-3,2
1665978426.562666,1,-2,6,1,1,-2,-1,-1
1665978426.5751874,3,3,1,-4,-3,-2,-4,0
1665978426.577841,-3,0,1,-2,1,1,-3,1
1665978426.581732,-6,0,-3,-2,1,3,-1,-9
1665978426.5843768,-2,-6,0,-1,-2,-3,-3,-2
1665978426.589372,12,-7,3,0,0,2,3,8
1665978426.5914774,17,-18,-2,4,-1,-1,0,2
1665978426.595928,-9,5,-1,-1,-3,-2,0,-3
1665978426.5978436,-2,6,-3,-4,-2,-3,0,1
1665978426.6128488,4,-7,-3,-1,0,1,-3,0
1665978426.6152554,-3,-1,-6,-1,-5,0,1,-3
1665978426.6200118,-6,-3,6,-1,1,-3,3,-1
1665978426.6223688,3,0,-4,0,-2,4,-3,-3
1665978426.6359487,1,-5,-6,-4,1,-9,-2,-1
1665978426.6379826,2,1,0,-2,1,-1,2,1
1665978426.641558,-5,-6,-2,0,-3,-2,7,1
1665978426.643574,1,-5,-3,0,0,1,-2,1
1665978426.6494837,-6,-3,0,-1,1,-4,-4,-2
1665978426.652618,-6,-2,7,2,-3,-3,0,-7
1665978426.657127,1,-3,-4,-1,1,-4,-2,1
1665978426.6590412,2,-5,7,-5,2,-1,-3,-4
1665978426.6729908,-4,6,-7,2,-2,1,1,-2
1665978426.675263,-6,3,2,-1,0,-3,-2,-6
1665978426.6794453,0,1,4,-1,-1,-3,-3,0
1665978426.6817734,-3,1,-5,1,-4,4,-3,-1
1665978426.6962583,2,3,2,-1,1,-1,-2,1
1665978426.6988573,-3,-1,-16,0,-1,3,-7,-2
1665978426.7034202,-12,3,1,-4,-1,-1,4,1
1665978426.705857,-2,7,-2,0,0,-1,2,-3
1665978426.7093377,-1,-4,1,2,1,2,0,-2
1665978426.7119634,-3,1,-1,-3,1,-2,-3,3
1665978426.7176123,0,-3,-2,1,-1,2,0,-3
1665978426.7207513,0,-5,2,-2,-3,-1,-1,2
1665978426.7321064,7,0,-7,-1,-2,-4,-1,2
1665978426.7336705,8,6,12,1,0,-4,-2,1
1665978426.7382524,5,-8,-10,0,-1,2,-1,-2
1665978426.7401397,-3,2,-4,-1,-3,-6,-3,1
1665978426.7551234,2,1,5,1,-3,3,0,-3
1665978426.7572944,-2,0,-4,-5,-4,3,0,-2
1665978426.7610872,3,-9,3,0,-1,-1,-4,-1
1665978426.7631283,2,3,-7,-4,0,-1,2,-2
1665978426.7696502,-10,-8,-3,0,-2,-3,-5,-1
1665978426.7726378,3,5,0,-2,0,-8,3,2
1665978426.7781367,7,4,1,2,-2,2,-4,1
1665978426.7807517,-8,-4,-1,0,-2,4,2,-3
1665978426.7919333,1,-13,2,-5,4,1,1,-4
1665978426.7944133,5,-8,-7,4,1,-1,-1,-5
1665978426.7987597,2,-2,-2,2,-2,1,-3,-2
1665978426.80152,3,-1,4,-1,-2,-8,-4,0
1665978426.8158755,0,3,1,-2,-1,-5,1,3
1665978426.8184826,1,-8,5,0,-3,5,-2,2
1665978426.8223817,-12,-2,-8,-3,2,0,-2,-5
1665978426.8243535,-11,2,-1,-2,1,3,0,-3
1665978426.8289347,-9,3,0,2,-4,-1,-1,2
1665978426.8313136,-3,3,-2,0,-5,1,1,-3
1665978426.837495,-3,4,2,-1,0,-2,-3,1
1665978426.8396702,4,-6,3,5,-2,-2,-2,-4
1665978426.8529303,4,-3,-2,0,-1,1,4,-1
1665978426.8552659,-8,0,-1,-1,-2,0,-4,-5
1665978426.858778,-1,-6,-8,-4,-3,5,-2,2
1665978426.861317,-10,3,-5,2,-2,2,3,1
1665978426.8758147,0,8,2,-2,-3,-5,-3,4
1665978426.87865,0,-6,-1,2,3,0,0,-3
1665978426.8832283,-1,-6,-8,-1,-1,-2,-1,-5
1665978426.8857667,1,-6,-1,-3,0,-2,-2,0
1665978426.8888705,-1,-3,-6,-3,-3,5,0,-1
1665978426.8907998,0,-8,-1,-2,-3,0,1,1
1665978426.8979838,7,2,4,1,-2,1,-4,0
1665978426.900523,3,-4,5,0,2,0,-1,5
1665978426.9119895,-1,-7,-7,-1,0,2,-1,-1
1665978426.9140062,-5,-1,-3,-3,0,-2,-1,2
1665978426.919539,3,-3,8,-2,0,-4,-1,-1
1665978426.9214811,7,-1,-7,2,-1,3,-3,-1
1665978426.9354146,3,-4,11,-1,-2,3,-3,-5
1665978426.9375212,0,3,-12,-2,-2,2,-2,1
1665978426.940944,2,0,1,-1,0,-5,0,2
1665978426.9431098,6,-8,3,-3,0,-6,-1,-1
1665978426.949445,5,-2,-2,-1,0,-2,0,0
1665978426.951935,8,-8,-4,-3,0,0,-1,-2
1665978426.9583406,5,-3,-1,-2,-1,1,-1,1
1665978426.9605758,0,4,-6,0,1,-1,0,2
1665978426.9726057,-3,-8,3,2,-2,-5,-1,-4
1665978426.9748724,2,3,0,1,0,-3,-1,-1
1665978426.9786634,-5,6,4,2,-2,0,-2,-2
1665978426.9809005,-3,-10,1,-2,0,-1,0,1
1665978426.995758,3,2,-8,0,-2,0,-4,3
1665978426.9978993,1,-5,4,3,-1,-1,-1,-1
1665978427.002828,-2,-6,-3,1,3,0,0,0
1665978427.0051217,-2,2,-7,0,-3,0,-3,-4
1665978427.0085673,-3,3,0,-4,0,-2,-3,-5
1665978427.0105925,-1,-2,2,-1,3,-4,-2,-1
1665978427.0188882,-10,-1,-2,-2,1,4,2,-2
1665978427.0210626,-8,1,0,-2,-4,-9,-1,-2
1665978427.0322435,-13,4,-1,1,2,0,0,1
1665978427.0342808,-2,-7,8,-2,0,-1,-2,4
1665978427.0383377,4,1,4,-1,0,-1,-2,1
1665978427.0405548,2,-2,-7,3,-2,4,0,-3
1665978427.0549843,3,-4,-3,-2,1,-2,-2,0
1665978427.0575876,1,11,5,-1,-4,0,-6,0
1665978427.061413,-4,0,1,2,1,-1,0,-1
1665978427.0638454,-3,5,-2,-5,0,-1,-1,0
1665978427.0683546,23,-2,0,-2,-2,0,-3,1
1665978427.0701208,1,-3,-5,-1,-3,0,-1,-2
1665978427.0774322,1,-4,-2,1,-4,-4,3,-1
1665978427.079418,3,0,6,0,-1,2,-3,-3
1665978427.0917425,0,-2,1,-4,0,2,2,1
1665978427.093787,0,-6,-12,-3,-2,-1,-1,-3
1665978427.0987737,-6,-1,1,-7,-2,-5,-1,-4
1665978427.1008513,-1,-5,-11,-1,-1,10,1,-2
1665978427.1151862,-8,-3,-1,0,1,-1,1,-2
1665978427.117336,-6,-5,-1,0,-2,-3,1,-4
1665978427.1210065,1,4,-10,-2,-1,-3,-3,-2
1665978427.1231065,4,-4,3,-2,3,0,2,-1
1665978427.128629,-3,4,-4,1,-1,-4,-3,-1
1665978427.1314752,-4,-4,4,3,-2,1,3,0
1665978427.137395,-1,0,-7,-3,-3,-1,0,3
1665978427.1395192,2,-5,4,0,-2,-4,1,0
1665978427.151687,1,1,-6,-4,2,-5,-6,0
1665978427.153794,-3,0,-4,-2,4,1,3,2
1665978427.1583838,3,-5,5,0,-3,0,-5,-2
1665978427.1603699,-3,-3,-3,0,1,3,-2,-1
1665978427.1740184,-17,9,2,-1,-4,0,1,-5
1665978427.176095,-4,5,-1,-3,-1,1,-4,-7
1665978427.1826727,-8,4,2,0,3,-7,4,-1
1665978427.1846642,0,0,-7,-3,0,2,0,3
1665978427.1884043,4,-8,-1,0,-2,2,-1,-2
1665978427.1902597,-6,-2,-2,-1,-1,-1,-3,-5
1665978427.1978602,4,-10,-2,-1,-3,2,0,-3
1665978427.1998818,1,15,13,2,-3,-4,4,4
1665978427.2126508,5,-7,-3,2,-3,5,0,-3
1665978427.2151575,3,7,-2,0,-1,-2,0,5
1665978427.2186112,-1,7,4,-1,1,2,-2,-3
1665978427.2205877,15,-3,5,0,-3,-6,-2,3
1665978427.2344563,2,2,2,0,0,6,0,-3
1665978427.2365,1,0,-2,-1,-1,-1,-5,3
1665978427.241298,3,-9,2,4,2,-2,1,6
1665978427.243448,-3,-3,-15,-1,-1,3,0,-4
1665978427.2583857,3,-5,-1,-2,0,-2,-3,0
1665978427.2612176,6,-4,1,-3,-3,0,0,2
1665978427.264947,9,-5,-2,0,-3,-1,0,-1
1665978427.266974,-4,-9,-2,-1,-1,-3,-5,-3
1665978427.271735,1,0,-2,0,-2,-4,4,-1
1665978427.2738292,-2,-3,-5,-2,0,-5,0,0
1665978427.2787628,-3,2,-1,-3,1,1,0,-4
1665978427.280822,-4,4,5,1,-1,-2,-4,-5
1665978427.2947752,-2,-4,2,-1,1,-2,3,3
1665978427.2971497,19,-3,4,3,-4,1,0,-1
1665978427.3010466,-2,-6,0,1,-3,0,-2,-2
1665978427.3030944,-1,2,-3,-2,-2,-1,-2,-1
1665978427.3274467,5,-5,-1,-2,1,2,-2,3
1665978427.3298197,-2,-11,-10,2,-2,-1,0,3
1665978427.333393,-3,-2,6,2,1,-1,0,-1
1665978427.3356178,-1,-3,-12,-2,4,-3,-1,0
1665978427.3383842,-7,2,1,2,-3,-1,2,-2
1665978427.3405397,-9,1,11,-3,1,0,-4,-2
1665978427.344108,0,-4,0,0,0,0,1,-1
1665978427.3460624,4,-12,-2,-1,0,-2,-1,-3
1665978427.358274,-5,-1,2,1,-3,0,-10,-5
1665978427.361252,3,-4,-4,-1,1,-3,4,1
1665978427.365213,5,-3,-7,-4,-5,0,-1,1
1665978427.3672314,0,-2,7,1,2,4,-2,1
1665978427.377572,-2,-7,-3,-2,2,0,1,-3
1665978427.3799102,1,-4,1,2,-4,1,-4,-2
1665978427.3839288,-2,12,2,-2,-3,-1,-6,-5
1665978427.3859966,-1,-5,-8,-2,-3,-4,1,-4
1665978427.3919802,-1,-3,-3,1,0,-1,-1,0
1665978427.394769,-2,4,-1,-2,3,0,0,-3
1665978427.398711,-5,2,-8,-1,-2,-3,-2,-1
1665978427.400759,-1,6,8,-2,1,-5,-1,2
1665978427.4149063,8,0,-5,0,-2,-5,-3,0
1665978427.416952,-3,3,8,-2,-1,-1,-3,-1
1665978427.4224315,1,-3,3,-1,2,5,-2,1
1665978427.4244363,-3,-1,-5,-3,-2,-1,-1,-4
1665978427.4389763,-1,1,2,-3,-3,-5,-1,0
1665978427.4410362,3,-4,1,0,-2,-2,1,0
1665978427.4450674,2,2,0,0,-3,-3,-1,0
1665978427.447396,-3,2,0,1,-3,-5,-2,-4
1665978427.4518785,-5,1,0,0,-2,-2,0,0
1665978427.4552414,0,-3,-10,-1,-1,-1,2,0
1665978427.4589584,2,0,-6,-3,-3,0,0,-3
1665978427.4615571,0,0,5,4,2,1,-1,0
1665978427.4744065,1,-2,-3,1,-2,-1,0,-1
1665978427.4766235,-2,-1,1,-2,-1,-2,-1,-3
1665978427.4812994,-4,-7,-5,2,0,0,2,-1
1665978427.4833548,-8,-2,-1,-6,-4,3,-2,-3
1665978427.4979837,-9,4,-2,-4,0,3,-3,2
1665978427.5000823,-1,-1,0,0,1,-2,-1,2
1665978427.5050814,-6,3,-7,-5,-2,-6,-4,-1
1665978427.5071745,2,2,-1,2,-1,3,4,-1
1665978427.5123308,-4,3,4,1,-2,-6,2,-3
1665978427.5146122,3,0,5,2,-3,-1,-4,1
1665978427.5188904,-3,-1,0,-2,0,0,2,0
1665978427.521964,0,-8,6,3,-3,1,-3,0
1665978427.534569,3,-1,-1,-3,1,2,1,-4
1665978427.5366523,2,-1,-7,2,0,-2,2,-3
1665978427.5410478,2,-3,2,-2,1,-2,-1,0
1665978427.5432518,0,2,-2,-2,-3,-1,-3,-2
1665978427.5575662,15,-9,-1,-1,3,-1,-1,0
1665978427.5598407,-7,5,-1,0,-3,-2,0,-4
1665978427.5638285,1,-4,-5,0,1,1,-1,-1
1665978427.5658877,0,-5,-1,0,-1,-1,1,0
1665978427.571887,-3,-1,-11,-4,0,0,-1,-2
1665978427.5739126,-2,4,-3,1,-1,-1,-3,-2
1665978427.5791183,-4,-6,0,-1,-3,0,1,0
1665978427.581219,-1,-1,-1,3,0,-4,-1,-2
1665978427.5944536,1,1,-2,0,-4,-4,-1,2
1665978427.5964794,0,-3,-7,-3,0,1,-2,1
1665978427.6010537,-4,-1,2,3,-2,-3,-4,-5
1665978427.6030517,-10,1,3,-6,1,-3,0,0
1665978427.625949,1,2,-1,-1,2,0,1,-1
1665978427.6280797,12,-4,-4,-1,-1,-3,-2,1
1665978427.631942,-5,5,1,-3,1,-3,1,-1
1665978427.6339476,2,2,-5,-2,2,-2,2,3
1665978427.6366866,0,-6,1,3,0,2,0,2
1665978427.638722,-3,4,2,-4,0,-1,1,0
1665978427.6421957,-3,3,2,4,-1,-4,1,0
1665978427.6446283,0,0,-1,1,-1,-1,-4,0
1665978427.6544502,-3,-7,-1,0,-3,0,-1,1
1665978427.6564877,0,-1,2,-2,1,2,0,-1
1665978427.6616747,2,-6,1,-2,2,-1,-4,-4
1665978427.6638055,3,-3,-3,-1,-3,-2,-2,-4
1665978427.677512,0,1,4,0,1,-2,-1,-2
1665978427.6797533,-7,-7,-6,-2,0,-1,-3,-2
1665978427.6829925,-2,1,1,0,1,2,1,-1
1665978427.6848485,-1,0,-2,-1,-5,-2,-2,-1
1665978427.6909573,-4,3,-6,2,-1,-2,-1,1
1665978427.6930828,1,-2,-6,0,-4,-3,0,-2
1665978427.7003713,-1,-1,2,-5,-2,-4,-3,1
1665978427.7023723,2,-1,-5,2,2,-1,0,0
1665978427.7151575,0,-1,-1,-2,-3,-2,-1,-6
1665978427.7171302,-2,-3,-3,1,0,-1,3,1
1665978427.7211761,4,19,0,3,0,0,1,1
1665978427.723205,2,-2,1,-1,2,-1,-3,-2
1665978427.7376225,-3,1,1,-6,-2,-3,-1,-1
1665978427.7396667,1,1,12,0,1,2,-2,-1
1665978427.7432923,1,-8,-5,0,2,-4,2,-2
1665978427.7456899,-2,-2,-1,-4,-2,1,0,1
1665978427.7512639,2,1,2,-2,-3,0,-1,-5
1665978427.7532337,2,-5,-2,-2,-2,0,1,-1
1665978427.7602558,5,-15,-5,3,-1,-1,-2,1
1665978427.7625856,-2,-6,2,-1,1,-1,1,0
1665978427.7744524,-2,-2,0,0,-3,-1,-1,2
1665978427.776633,0,-7,-5,0,0,-2,-3,-1
1665978427.7811532,1,-1,-1,0,-2,-2,-3,2
1665978427.7833433,-4,-2,-6,-4,-4,0,4,-1
1665978427.7978702,1,-6,4,-3,-2,-2,-2,-2
1665978427.8001697,-5,-3,0,5,-1,0,-5,-1
1665978427.803632,-3,-2,-5,-1,0,2,-1,-1
1665978427.805678,2,-3,5,-2,-1,0,-3,2
1665978427.8117757,2,3,-3,-4,-2,-3,0,-2
1665978427.8139904,-1,-5,-3,-2,2,-2,0,-1
1665978427.8200698,-1,0,-1,-3,-1,-3,-1,-2
1665978427.8219543,1,1,-3,0,0,1,2,-1
1665978427.8346968,3,-4,0,2,-1,-2,-1,-2
1665978427.8367076,3,0,-1,-1,1,-2,-2,2
1665978427.8411243,2,-2,2,3,-2,-1,-1,1
1665978427.843172,-1,2,-1,-2,-2,-1,0,-1
1665978427.8577173,-1,-1,0,0,-1,-2,2,-3
1665978427.8597465,0,6,0,-2,1,2,-4,-1
1665978427.863172,2,-6,-2,0,-3,0,0,-1
1665978427.8654392,-2,-1,0,3,-1,-4,-5,-2
1665978427.8709972,-1,-4,-2,-5,1,1,-4,1
1665978427.8729165,-2,-6,-4,0,-5,-3,0,-1
1665978427.8807037,0,2,-1,-2,-1,1,0,-2
1665978427.882731,-4,-2,1,-2,2,-2,0,-1
1665978427.894366,-2,-2,-1,2,1,1,1,-1
1665978427.896803,-3,3,-1,-1,-3,-2,-2,-4
1665978427.9013956,-3,-2,-1,-3,0,-2,-1,-5
1665978427.9033878,-3,-4,-5,-3,-1,-4,-2,-1
1665978427.9176087,-4,5,2,0,2,-2,-3,-2
1665978427.9196186,2,-5,-1,-4,-2,-3,2,1
1665978427.92294,-2,0,6,1,-4,-3,0,2
1665978427.9248183,2,-1,0,1,-1,-1,-1,-3
1665978427.9313147,-1,-4,-2,1,1,-2,-2,1
1665978427.933273,-4,-1,1,1,-1,0,2,-3
1665978427.9479744,2,-1,-2,-3,-1,-1,0,1
1665978427.950057,-1,0,0,-3,0,-3,-4,-3
1665978427.954363,-3,-3,1,-2,-3,-1,0,-1
1665978427.956275,0,2,-1,-3,0,1,1,0
1665978427.9617245,-3,-5,-3,1,-1,2,-2,-1
1665978427.963812,0,1,0,0,-5,-1,0,-1
1665978427.977573,-5,-3,-2,3,1,-4,3,0
1665978427.9797835,3,0,-4,0,-2,1,-4,0
1665978427.983198,-1,-2,-1,-3,1,-1,-1,1
1665978427.9851072,1,4,-1,-1,1,-1,-2,-2
1665978427.991496,3,-3,-3,-1,-2,-1,-2,0
1665978427.9935982,-4,4,0,-3,-1,-3,-2,-2
1665978428.0001597,-2,-2,-1,1,-1,-2,1,-2
1665978428.0020723,1,-4,-2,-1,0,-3,2,1
1665978428.0143864,0,3,-1,-2,-2,2,-1,0
1665978428.016328,-1,2,2,2,2,1,-2,-1
1665978428.021185,-1,-3,3,-1,-3,0,-4,-1
1665978428.0231142,-1,-6,0,1,-3,2,1,-1
1665978428.0377233,1,-3,-2,1,-1,0,-4,-2
1665978428.0397458,-2,-2,0,-1,-2,-1,0,-1
1665978428.0431712,0,1,-1,1,-2,-3,2,-3
1665978428.04526,0,3,-1,1,-5,-2,-2,-1
1665978428.05105,1,-5,-1,0,-3,-1,0,-1
1665978428.053039,-7,2,0,2,2,-1,2,-1
1665978428.0600836,2,5,-3,-2,2,-1,1,-4
1665978428.061955,1,0,-4,-2,1,-1,-1,-1
1665978428.0742161,2,0,-1,-2,-3,-1,0,0
1665978428.0761867,-1,-1,-2,4,-2,-1,-3,-2
1665978428.0811055,-2,0,0,-1,-3,-3,-2,2
1665978428.0831325,-1,-2,2,-1,-1,2,-3,2
1665978428.098126,-3,-1,-4,5,0,-1,-2,-2
1665978428.100142,5,-4,-2,1,-3,-1,-2,0
1665978428.1037364,-2,-4,-2,-2,-2,-4,-4,-2
1665978428.1057029,-3,2,2,3,-2,-1,-1,-1
1665978428.1119337,0,0,-2,1,2,-1,-1,2
1665978428.1138933,-3,-6,-3,-2,-1,1,0,1
1665978428.1201205,3,-1,0,3,2,0,0,0
1665978428.122014,1,2,0,-1,-3,0,-1,-2
1665978428.1343548,0,0,2,0,2,0,-2,-2
1665978428.1364083,-3,1,-5,2,-2,-1,0,1
1665978428.1414096,1,-2,-3,-3,-2,3,-1,-2
1665978428.1434996,-1,-4,-1,2,1,0,-2,2
1665978428.1570194,8,-3,-2,-2,0,-4,-1,-2
1665978428.1590672,-1,-3,3,-2,0,-3,-1,-1
1665978428.1638026,-1,-3,0,-3,-3,0,-1,-1
1665978428.1657887,1,-1,-5,-2,-3,1,-2,-2
1665978428.1810324,0,-4,-4,0,-2,-3,0,-1
1665978428.1831014,4,0,2,-1,4,-1,0,-1
1665978428.1865773,-1,3,-2,1,0,0,-3,-1
1665978428.1886358,3,-2,-3,0,0,-1,1,-1
1665978428.1952753,-1,-3,-2,-3,0,4,-3,0
1665978428.19771,0,0,-1,-3,-3,-7,0,1
1665978428.201126,-2,-9,-4,1,2,-3,-2,1
1665978428.2031279,-5,-2,-4,-4,3,-2,-1,3
1665978428.217059,-2,1,0,1,-5,1,-2,0
1665978428.2191305,4,-4,-7,0,-3,1,-5,-2
1665978428.223825,-3,-1,1,-1,-1,1,4,1
1665978428.2258458,3,-2,-1,-2,-3,-2,-1,-4
1665978428.2402513,-2,-3,-3,-2,1,1,-2,-2
1665978428.2422805,2,-2,0,1,-1,-1,-1,-2
1665978428.245864,-1,-2,0,-1,-3,-1,1,-1
1665978428.2478614,-1,-4,2,2,0,-2,-1,-4
1665978428.2542934,0,2,2,0,0,-1,0,-1
1665978428.2564762,-2,-5,-6,-2,0,1,-2,2
1665978428.2614837,-5,2,-1,-1,-2,-1,-3,-2
1665978428.2634947,-3,-2,-5,-1,-5,0,-4,-2
1665978428.2772985,-1,-1,-1,0,-1,-2,1,1
1665978428.2794933,-1,-4,-2,-2,-1,-1,-1,-3
1665978428.2838035,2,0,-1,-1,-2,0,2,-1
1665978428.2857666,0,2,1,-3,-4,0,0,2
1665978428.3002357,-2,-4,-3,1,0,-2,-1,-2
1665978428.3022387,-3,1,1,0,-5,0,1,-2
1665978428.3056798,0,2,-5,-1,-1,-2,1,2
1665978428.3075757,1,-1,4,1,-2,1,-2,0
1665978428.3148987,-3,0,0,2,-2,0,0,-1
1665978428.3169758,-8,-2,3,1,-1,-2,3,1
1665978428.3211691,2,-4,-5,-2,2,-4,-2,0
1665978428.3231814,-4,-2,-2,1,0,1,-1,0
1665978428.3371325,0,-8,-4,0,-1,-3,3,0
1665978428.3392663,4,0,-1,-3,2,0,-1,-2
1665978428.3437235,0,-1,2,1,-4,1,-2,-2
1665978428.3457873,-1,1,-4,-2,1,0,0,3
1665978428.3602974,3,-2,0,0,-2,0,1,-3
1665978428.3623762,1,0,-1,-1,-2,-3,0,0
1665978428.3658981,-2,-3,-1,-4,-3,-7,-2,-1
1665978428.367901,1,-3,-2,0,2,-5,-2,-5
1665978428.3744607,-4,5,1,-4,-2,0,-1,1
1665978428.376439,2,-1,0,-3,3,1,0,0
1665978428.3810537,1,-4,-3,-2,-1,3,-1,0
1665978428.3832135,-5,4,-3,-6,0,-4,-2,1
1665978428.397795,-3,-4,-10,2,-2,-1,0,-2
1665978428.3999152,-2,-2,-1,-1,0,-1,-2,-1
1665978428.4037025,1,-3,-3,1,2,-1,-1,-3
1665978428.4055843,-5,-1,1,1,-3,-4,0,-1
1665978428.420344,6,-4,2,-3,-2,1,-1,7
1665978428.4225662,3,2,0,-1,-1,-2,-2,0
1665978428.4262843,-4,-2,-1,-2,1,-3,0,-1
1665978428.4285057,2,-7,-3,1,-3,1,2,0
1665978428.4337761,-1,-7,-1,0,0,0,-4,-5
1665978428.4358432,3,-1,-2,1,-4,2,-3,-1
1665978428.442989,3,-1,1,0,3,0,-4,1
1665978428.4453442,4,-2,-2,0,-4,-1,-2,0
1665978428.4569395,-4,3,0,-3,-2,-1,-1,-8
1665978428.4592054,0,-4,-1,-3,-2,-1,4,-5
1665978428.4637883,3,1,-4,2,-1,-1,0,-2
1665978428.4657743,3,-1,-2,-4,-3,0,-2,-1
1665978428.4809449,10,5,1,2,-1,-2,0,7
1665978428.4830978,1,5,0,2,-4,-4,-3,-1
1665978428.4865744,-7,2,0,-2,-3,-1,-1,-2
1665978428.4886255,0,-5,2,1,5,-2,-3,-2
1665978428.4939184,-1,-6,-1,-2,-6,-4,0,2
1665978428.4962947,-2,2,-1,-3,-1,-1,-1,1
1665978428.5027103,-2,-2,-1,1,1,0,-1,0
1665978428.5047975,4,4,1,-1,-1,-1,-1,2
1665978428.517091,-6,2,-3,1,1,-2,-2,-6
1665978428.519143,1,-7,-10,-1,0,-1,1,-1
1665978428.5237741,-1,-1,4,-1,-3,-4,2,-2
1665978428.5259387,-3,-2,-6,-2,-5,-1,1,0
1665978428.5481856,-2,-3,-2,-1,2,-1,-2,-11
1665978428.550181,-2,5,8,1,1,1,2,3
1665978428.5537438,4,-2,-2,0,-1,-3,-3,2
1665978428.555725,-2,-1,0,1,-2,-2,-1,-4
1665978428.5584812,-5,5,5,1,-2,-2,-2,4
1665978428.560674,-7,-3,1,0,-1,-2,2,-2
1665978428.564703,-2,-2,0,1,-2,2,-1,-2
1665978428.5667279,3,0,0,-1,-2,-1,-2,-3
1665978428.5772924,1,-3,-3,-1,-1,1,0,-2
1665978428.57946,-1,-9,-2,-1,-1,-2,-2,-5
1665978428.5837862,2,2,-2,-3,0,3,-1,2
1665978428.585693,-4,1,-1,-1,-2,2,2,3
1665978428.600623,0,3,0,-1,-2,-1,-1,0
1665978428.6028419,-3,-5,-4,1,-3,-2,-2,3
1665978428.606339,-5,1,-3,-2,-2,-1,-1,-3
1665978428.6084142,0,-4,1,2,3,-3,0,-1
1665978428.6151824,3,-2,-3,-1,0,1,0,0
1665978428.6173258,3,-2,-1,-1,-2,1,-2,0
1665978428.6210854,-10,-1,1,-2,-1,-2,-1,-5
1665978428.623143,4,0,3,0,1,0,-2,-2
1665978428.6370702,5,-1,-1,0,-1,2,-2,1
1665978428.63914,6,0,1,-1,-2,-3,-4,-5
1665978428.6438928,5,-3,0,-1,-2,-2,-2,-1
1665978428.6461089,-2,-5,-1,-1,-3,-2,1,-4
1665978428.6602004,-2,-1,6,-4,-1,-4,-1,1
1665978428.6623554,-1,1,-9,-3,1,2,-1,-3
1665978428.6658473,-2,2,0,0,-2,-1,-1,-1
1665978428.6678548,-3,2,-4,-2,-3,0,0,-1
1665978428.673812,-1,-4,-3,1,0,-2,0,-2
1665978428.6759973,-5,3,-1,0,0,-1,1,2
1665978428.6832874,4,-5,-1,-1,0,0,-2,-2
1665978428.685361,-1,-2,-1,0,0,1,-1,-2
1665978428.6975436,-6,-2,-2,-1,1,-3,-1,2
1665978428.6996408,-3,0,-4,-4,-2,0,-2,-7
1665978428.7036898,2,-6,-2,-3,1,1,-1,1
1665978428.7056658,-3,-3,-2,-1,0,1,-3,3
1665978428.7203684,2,-1,0,0,-2,1,0,1
1665978428.722559,2,-4,2,0,-3,-4,1,4
1665978428.726262,3,4,1,1,-1,-2,-1,3
1665978428.7285795,-4,-3,-1,-2,-1,1,1,0
1665978428.733886,-3,2,0,0,1,-2,-1,0
1665978428.7359257,6,-5,-3,-2,-1,3,0,7
1665978428.742983,7,-2,-5,2,-2,-2,-1,-3
1665978428.7449706,0,3,-3,1,3,-3,-1,-4
1665978428.757069,-4,2,0,-1,-1,-2,-1,1
1665978428.7592425,-1,-2,-3,1,2,1,-1,-2
1665978428.764097,-3,1,1,2,-1,-1,3,-3
1665978428.7663321,2,1,-1,1,3,-4,-2,-1
1665978428.7813318,-1,6,7,-2,1,-4,-1,-3
1665978428.7834468,1,-2,2,1,-2,-2,-4,-4
1665978428.7869134,-3,0,3,-1,-3,-1,0,-1
1665978428.788939,-2,-4,-1,-3,-1,1,1,4
1665978428.793945,1,-9,-2,-2,0,-1,-5,-2
1665978428.7961736,-3,-5,3,-2,1,-3,0,-4
1665978428.802811,-3,1,1,-3,-2,-1,-3,5
1665978428.8047817,-3,-7,-7,-2,0,-4,0,-2
1665978428.817226,-1,0,-4,2,-5,2,-1,-5
1665978428.8193958,0,2,-3,-1,-2,0,1,1
1665978428.8237538,-3,-1,-3,-5,0,1,4,-1
1665978428.825738,0,-2,0,-1,1,4,-5,-2
1665978428.8405187,2,-4,-1,-3,-3,-4,2,0
1665978428.8426142,-5,2,0,0,-1,1,-1,3
1665978428.846505,4,-6,-2,0,2,-3,-3,-13
1665978428.8484132,-5,3,3,-1,-3,1,2,2
1665978428.8537087,-1,-4,-4,0,1,2,-1,-2
1665978428.8557801,-2,-1,2,0,-1,-3,-2,0
1665978428.8630085,0,-9,-5,-3,-1,0,-4,-2
1665978428.86518,3,-2,-2,2,1,1,-2,-2
1665978428.8769565,2,-6,-3,0,-2,1,-1,-2
1665978428.8790438,-4,-2,0,-1,0,-4,0,-2
1665978428.883748,-4,4,-2,1,0,-2,-3,-1
1665978428.8856184,-8,-6,-2,2,-1,-8,0,-3
1665978428.9004948,-3,-3,-1,-1,-5,1,-1,1
1665978428.9026568,-1,2,1,0,0,1,-3,-3
1665978428.9061675,0,3,0,1,-1,-2,0,0
1665978428.908186,5,0,-6,-1,-2,-1,-2,-2
1665978428.9139576,2,-1,-3,-4,-3,1,-3,2
1665978428.916013,-7,5,0,3,1,3,0,-4
1665978428.9226105,-2,-6,-2,-4,0,0,-3,5
1665978428.9244862,6,5,3,-1,-3,-3,1,0
1665978428.93722,3,-7,-8,-1,-1,-4,0,-2
1665978428.9392884,1,2,3,-3,-3,2,1,0
1665978428.9440541,2,-5,-3,1,-5,1,-2,3
1665978428.9462392,-4,3,-2,-3,-1,-5,-1,-10
1665978428.9604137,-1,3,2,1,1,-5,0,1
1665978428.9642801,0,-6,-2,-1,-2,-1,-1,1
1665978428.9682677,-6,2,2,-2,-3,-5,2,-2
1665978428.970353,1,1,-1,0,-2,0,0,1
1665978428.97379,-3,0,3,1,0,0,-1,-3
1665978428.9758463,1,-2,-4,-5,-3,-4,-2,0
1665978428.982976,1,0,-2,2,-2,-1,-2,1
1665978428.984891,0,-6,1,-2,-1,1,0,3
1665978428.9976535,0,-3,1,-1,-1,-1,-1,-4
1665978428.9997542,2,-5,-3,-2,0,0,0,-3
1665978429.0036988,-4,3,-1,0,-1,0,1,-3
1665978429.0057373,2,-3,-2,-2,0,-2,-3,-2
1665978429.0204873,-5,-3,0,3,-1,0,0,-2
1665978429.0226681,2,2,-2,0,3,-3,1,-1
1665978429.0261834,1,-3,0,-2,2,3,1,0
1665978429.0283563,4,0,-2,-1,-1,3,-4,-1
1665978429.0337408,-6,2,-1,-8,0,-1,-2,1
1665978429.035844,-2,-3,-1,4,0,2,-2,1
1665978429.0431666,-7,0,1,-2,-1,0,-1,0
1665978429.0454068,-6,-4,2,0,0,-3,-4,-2
1665978429.0568964,-9,5,-8,-4,-2,0,-1,0
1665978429.0589654,2,-3,3,-1,-4,-2,1,-4
1665978429.063979,-2,0,0,1,-2,2,-5,-3
1665978429.065971,0,4,3,2,-4,-1,-1,-1
1665978429.0802965,6,-3,-6,0,0,-2,0,-3
1665978429.0823083,-2,1,3,-2,1,-2,-2,0
1665978429.0862756,5,-4,-4,2,3,-1,-1,-2
1665978429.0881999,-4,3,1,-2,-3,3,2,-2
1665978429.102967,2,-3,1,-1,-1,0,-2,1
1665978429.1051064,-3,0,-4,1,1,0,-2,-1
1665978429.1086628,0,2,4,-1,2,0,-1,1
1665978429.110839,1,-5,-2,-3,-2,-2,-3,2
1665978429.1173747,-1,1,1,3,5,-1,2,-4
1665978429.1203232,-4,-1,-1,0,-4,-2,-2,-3
1665978429.126108,-3,-3,1,-2,-6,-3,-1,1
1665978429.1291852,3,-5,1,3,-1,0,2,5
1665978429.1399827,5,1,-3,-1,-2,0,-5,3
1665978429.1425612,0,4,-1,-3,2,1,1,0
1665978429.146679,-1,-1,-2,-1,0,-1,1,-6
1665978429.1488192,-9,1,0,0,-4,-3,-3,0
1665978429.1634617,0,1,2,4,2,-1,0,-1
1665978429.1655533,5,-6,0,2,0,3,-1,1
1665978429.1693444,-10,-7,0,-2,-1,-1,0,-4
1665978429.1714334,0,5,4,-4,-1,-2,1,-2
1665978429.1770504,1,-1,0,0,0,-2,0,-1
1665978429.1792252,0,0,1,-2,0,-2,-2,-1
1665978429.1841524,3,-2,-2,0,0,-2,-1,-1
1665978429.186072,0,-1,1,-1,0,0,0,2
1665978429.2000625,0,1,3,1,-4,1,-1,-3
1665978429.2020748,6,-3,-11,-1,-4,-3,-3,0
1665978429.2062643,1,5,3,2,4,-1,-3,1
1665978429.2082758,2,-2,-9,-1,0,0,-5,-7
1665978429.2229347,6,-2,3,-2,1,0,-2,2
1665978429.2250397,4,-2,-1,-2,-5,-5,1,1
1665978429.2289596,8,-1,-2,1,0,-1,-4,3
1665978429.2311165,2,-10,-6,-7,-2,-2,-1,0
1665978429.2370152,-7,4,1,-2,1,-1,-2,-8
1665978429.2390413,-1,0,6,0,0,3,3,1
1665978429.2513072,1,-10,-12,-4,-6,-2,2,1
1665978429.2533865,-5,-1,-5,-1,-2,-2,-1,-4
1665978429.2595198,0,5,1,-2,-3,-5,-3,3
1665978429.261799,-4,0,1,0,1,-2,-1,0
1665978429.26645,-2,5,-6,-2,-1,-1,-2,-5
1665978429.2684383,0,-1,-4,2,3,3,1,1
1665978429.2827246,-2,-8,-4,0,-4,-2,2,2
1665978429.2847774,-2,-3,-5,-4,-1,-1,-2,-11
1665978429.2888198,-2,5,4,-3,0,-3,-3,0
1665978429.2908611,0,2,2,0,1,1,1,3
1665978429.2972102,1,-4,-3,-2,1,0,1,0
1665978429.2993314,-3,-7,-2,-2,1,-2,-3,5
1665978429.303783,-4,-1,1,-1,-1,0,6,0
1665978429.305563,-7,-3,1,2,-3,-4,-6,-18
1665978429.3195407,-2,1,-3,-3,-2,-2,0,19
1665978429.3214278,5,6,4,0,-1,-4,-3,2
1665978429.3263457,0,0,0,2,-1,-2,5,-4
1665978429.3285239,-6,-5,5,0,3,3,4,3
1665978429.3428528,-3,-1,-6,-3,-2,-2,-4,-8
1665978429.3449116,6,-2,-4,1,-1,0,6,11
1665978429.3482726,0,3,-1,-2,2,-3,-4,-6
1665978429.3503418,8,0,-6,0,0,-1,14,11
1665978429.356889,-5,-6,0,0,1,-2,-8,4
1665978429.3588817,-15,1,0,-1,1,-4,3,-8
1665978429.364405,1,-3,0,3,0,-4,0,11
1665978429.3663478,-6,8,-1,-4,0,0,2,-1
1665978429.3803334,7,-3,-6,-2,0,2,0,5
1665978429.382321,-8,6,0,-1,-2,-3,-1,-2
1665978429.3863535,2,0,2,1,-4,2,-4,-2
1665978429.3888857,-1,0,3,1,-3,-1,-6,-1
1665978429.4243288,-1,-10,-3,-1,-3,0,-1,-4
1665978429.4259799,-4,4,7,-1,0,2,-3,-4
1665978429.4287364,-6,-6,1,-8,0,-2,-5,-9
1665978429.4305396,5,-1,-4,-1,-1,-5,-4,1
1665978429.43325,1,0,8,2,0,-2,-3,-4
1665978429.435162,3,-3,9,-3,-4,1,0,1
1665978429.4384937,-2,-7,2,-2,-2,-2,-5,-3
1665978429.4404483,5,8,-10,5,1,-2,-3,-3
1665978429.4430592,-4,-2,-7,-4,1,-2,1,-6
1665978429.4483793,1,-9,13,2,-2,-1,1,-1
1665978429.4518952,2,15,10,2,3,0,0,2
1665978429.453693,-2,-4,-20,-5,-3,1,-3,-3
1665978429.46366,-1,5,6,-1,-3,-2,2,-2
1665978429.465573,7,2,-5,-1,2,-2,-1,-1
1665978429.4683437,1,0,-4,0,-4,-1,-1,0
1665978429.469948,0,-6,6,0,-1,-1,-1,3
1665978429.4756107,2,-2,0,1,0,2,-3,-3
1665978429.4771776,1,-4,-6,-2,-1,-2,-5,-4
1665978429.4840894,-12,-9,-3,3,-1,1,-5,-15
1665978429.4850981,8,8,4,-2,-2,-7,-1,4
1665978429.498564,-4,-6,-2,-3,-3,1,1,-4
1665978429.4995124,-2,-3,-8,1,-3,2,-5,0
1665978429.505132,-5,3,-2,-3,4,1,0,5
1665978429.5061011,-3,-4,3,-3,-3,2,-5,-3
1665978429.5225854,-1,-2,-1,2,-1,1,1,-5
1665978429.5243573,-3,4,-5,-3,-1,-1,-1,-1
1665978429.527553,2,1,1,1,-3,-1,-3,0
1665978429.5298102,5,-4,3,-3,0,-6,1,-3
1665978429.536299,1,3,3,-2,2,1,-1,0
1665978429.5384555,3,3,-7,1,0,-1,0,-3
1665978429.5459208,1,-1,-3,-1,-3,1,0,1
1665978429.5481288,3,-2,-2,-1,-1,0,1,-4
1665978429.5596566,2,1,-3,1,-3,-3,1,3
1665978429.5614781,4,-6,-3,-1,-1,1,-2,-2
1665978429.5662239,1,-4,-4,2,1,-1,1,-2
1665978429.5679562,-5,0,-2,-1,0,0,-3,2
1665978429.5817423,-3,-7,1,1,-1,0,0,-2
1665978429.5831664,-4,0,-1,-1,2,0,-2,-4
1665978429.5861924,-3,-4,-3,-1,-2,-4,1,2
1665978429.5878115,-4,-3,3,0,-1,0,-2,-2
1665978429.5963857,1,4,-5,-1,0,0,-3,-2
1665978429.5993345,-1,-6,-1,0,-5,-1,-1,-2
1665978429.6054218,-2,0,-2,-2,-2,-1,1,0
1665978429.6073828,1,-3,3,0,-2,-1,-3,-1
1665978429.618886,-2,3,-5,-2,1,0,-2,-3
1665978429.620053,1,0,-3,0,2,-1,0,3
1665978429.6254125,3,1,-1,0,-4,-1,-2,2
1665978429.6264336,0,0,0,-2,-3,1,0,-3
1665978429.6419177,-1,-3,-4,-1,0,-5,-3,-1
1665978429.643241,-1,2,-2,1,-4,1,-2,-1
1665978429.6451561,1,-2,-7,-3,-4,3,1,-1
1665978429.6462567,-1,3,2,-1,0,-2,0,0
1665978429.6554985,1,-5,0,3,1,-1,0,-2
1665978429.6567047,0,-1,-2,-1,2,-4,-3,0
1665978429.665776,4,-1,2,-1,1,-1,-2,-3
1665978429.6674454,-2,-6,-4,-1,0,1,-1,0
1665978429.6809201,-2,8,0,1,-3,-4,2,-1
1665978429.6836224,1,-5,-3,-3,-3,-1,0,0
1665978429.6874967,-4,-2,-2,-2,0,2,-2,-4
1665978429.689405,1,-2,-2,-4,1,-1,0,1
1665978429.702868,0,0,3,-1,-5,-2,-3,-3
1665978429.7046638,-1,-1,1,-3,-1,-2,-1,-3
1665978429.7075512,1,0,0,-3,-1,-2,-3,0
1665978429.7092717,0,-3,-2,-1,-2,0,-2,-2
1665978429.7157066,-1,-2,-2,0,-3,1,-2,1
1665978429.717061,0,8,-1,1,-4,2,2,0
1665978429.724104,2,-4,-6,-2,-2,-2,-2,0
1665978429.7254567,-1,-1,2,2,-2,-1,-2,-1
1665978429.7387884,-3,-6,-1,-2,0,-3,-1,1
1665978429.7410414,-3,3,-7,-1,0,1,0,1
1665978429.7476852,3,-4,1,3,-4,-1,-2,1
1665978429.7505689,-1,-2,1,1,-3,-3,-3,-2
1665978429.7643204,3,-3,3,-2,-3,-1,1,-2
1665978429.7669282,0,-8,5,-1,-1,-3,-1,0
1665978429.7701948,-1,0,0,1,1,-1,-3,0
1665978429.7721136,0,0,-1,-2,0,0,2,0
1665978429.7763348,1,-3,1,-1,-3,-3,-1,-3
1665978429.7786698,-1,-3,-7,-1,-1,0,-4,-2
1665978429.7855954,-2,5,4,-3,2,0,-1,1
1665978429.787498,-1,1,-2,1,0,-2,-1,-1
1665978429.800104,1,0,-1,0,-2,-1,-1,-8
1665978429.8020952,0,1,2,3,-1,1,1,0
1665978429.806058,-3,2,-2,-3,-2,-1,1,-1
1665978429.8081326,-4,-9,-2,2,3,1,-2,-5
1665978429.8226724,1,2,-2,-3,-4,-1,-1,0
1665978429.8246427,-1,-2,-2,0,2,-3,-1,3
1665978429.8283606,2,-4,-5,-1,-2,-1,3,-4
1665978429.8303428,-3,1,6,-2,-3,-1,0,-1
1665978429.8455281,4,-2,-5,1,-5,1,-1,3
1665978429.8475745,0,0,0,-4,-1,-2,-2,-5
1665978429.8508985,-1,1,1,-1,1,-2,1,-1
1665978429.8531098,0,-5,-2,-3,0,1,-5,-2
1665978429.859641,-5,-6,2,1,1,-1,2,0
1665978429.8620088,-4,1,-1,0,-2,-1,-4,-3
1665978429.866904,-5,-7,0,-3,-2,-2,3,1
1665978429.868874,0,2,-2,-1,0,0,-1,1
1665978429.8825142,3,0,2,-1,-3,2,-1,3
1665978429.8840215,0,-6,1,-1,-3,2,-1,-10
1665978429.8863628,-5,-5,1,-2,0,1,1,1
1665978429.887623,2,-6,0,1,-2,0,-2,0
1665978429.8963487,2,3,-1,-2,3,-1,-1,2
1665978429.897519,-2,-4,-2,2,0,-3,2,1
1665978429.9042869,-2,-2,-2,0,-1,0,-4,0
1665978429.9054782,-3,-4,-6,-1,-2,-1,-2,1
1665978429.9192936,2,0,1,0,1,-1,-1,-2
1665978429.921041,-2,-3,-4,-3,0,2,0,-2
1665978429.9263952,4,-3,-3,0,0,1,-2,-3
1665978429.9285893,-1,0,4,3,2,-2,0,-1
1665978429.9427319,-5,0,-2,-2,-1,0,-3,-1
1665978429.9444516,5,5,-2,-1,0,-2,-2,3
1665978429.9482675,1,1,-5,1,-3,1,0,-2
1665978429.9499483,1,5,0,0,-2,0,1,-4
1665978429.956157,-4,-5,-3,-1,0,0,0,-1
1665978429.9578624,2,3,3,1,-6,-3,0,-2
1665978429.9650643,0,0,-1,0,1,-4,-1,0
1665978429.9664946,2,-4,1,1,-1,-3,-2,1
1665978429.9788897,0,-1,-7,1,0,-1,-3,0
1665978429.97999,-3,-6,1,-1,1,-1,-2,1
1665978429.9858792,-3,2,-2,2,0,-2,-3,0
1665978429.9876592,3,-1,-4,-3,-1,2,0,-4
1665978430.0042975,3,-7,0,-2,1,2,-3,0
1665978430.0078783,2,-6,-10,0,-1,-1,0,1
1665978430.0131876,-2,-9,1,2,0,-3,1,1
1665978430.0157351,-3,-2,-4,-5,-2,-4,-1,-1
1665978430.018495,-2,7,-2,2,-4,-2,2,-4
1665978430.0202005,-1,0,1,-3,-1,2,0,4
1665978430.0246375,0,1,-9,1,-5,-6,-1,-3
1665978430.0257444,0,-5,-3,1,-2,1,-3,-3
1665978430.0398424,1,-4,-1,-1,2,1,-2,-4
1665978430.0418622,0,-5,1,1,3,-1,0,-3
1665978430.0463476,2,1,-5,-2,-4,-2,0,4
1665978430.0484445,-2,0,4,1,-4,-3,-4,-1
1665978430.0625427,-3,-2,1,-1,-3,-3,-1,-1
1665978430.0645041,-1,2,-2,2,1,-1,-3,-2
1665978430.0684862,4,-4,0,1,0,1,-1,-5
1665978430.0703256,-4,-5,-2,1,-1,-1,3,1
1665978430.0852535,2,-7,-4,-3,-1,1,-2,2
1665978430.0872622,-1,4,3,-1,-1,-2,-1,2
1665978430.090637,6,-5,1,3,-2,1,-1,-2
1665978430.0927045,-1,-2,-8,-4,0,1,-2,-2
1665978430.0997753,-3,-5,4,-2,-2,-1,-2,0
1665978430.101697,1,2,-4,2,-3,0,0,-1
1665978430.1062849,-3,-1,0,-3,0,-2,-2,0
1665978430.1081886,0,2,-2,-2,0,1,1,0
1665978430.1221642,3,3,-1,-1,-2,-2,-1,-2
1665978430.1240575,-3,-6,-1,-3,-2,0,3,0
1665978430.1286752,0,-3,0,-3,-1,0,-3,1
1665978430.1309724,1,1,-2,-1,-3,-3,1,-1
1665978430.145709,-5,3,-5,2,4,-4,0,1
1665978430.1478243,-1,-9,0,2,3,0,-3,-1
1665978430.1506824,-2,9,-4,-5,-2,0,3,-6
1665978430.152371,-2,-1,0,-4,1,0,1,0
1665978430.1595318,1,2,-2,-4,-2,4,-2,-2
1665978430.1616957,-1,-6,0,0,-3,-2,-4,-2
1665978430.1663277,0,2,2,1,0,-4,-1,-1
1665978430.1683016,-1,4,-1,-1,0,-3,-3,1
1665978430.1835837,-2,-8,1,-1,2,-5,-1,-6
1665978430.1859112,2,4,-6,-4,0,-1,-2,-1
1665978430.189278,-1,0,2,0,2,-4,-5,1
1665978430.1911662,1,-3,0,-1,-1,-3,-1,0
1665978430.2044244,0,-7,1,-1,0,-1,-2,0
1665978430.205481,2,-1,-4,-4,-3,1,1,0
1665978430.207205,0,-3,-1,0,-1,0,0,1
1665978430.2081897,-2,-1,1,0,-1,-3,-1,-1
1665978430.2182062,0,-3,-3,2,-4,-3,2,-1
1665978430.2190015,2,-5,0,0,3,0,1,-2
1665978430.2250218,-3,0,-1,-5,-3,3,-3,-2
1665978430.2259326,0,-4,-4,-2,1,1,1,0
1665978430.2411067,-5,7,2,-4,-3,1,-1,0
1665978430.2419717,-1,4,-2,1,-4,-3,-2,-3
1665978430.2478197,-2,-3,-1,0,-2,0,0,-1
1665978430.2486346,-4,-4,-1,-1,-2,-3,-4,-4
1665978430.2641902,3,-8,-1,-1,-4,-1,0,2
1665978430.2650366,1,3,-2,2,-1,-3,1,1
1665978430.266491,2,-7,-4,0,-2,-1,-3,-2
1665978430.2672796,-6,5,10,1,0,-1,2,1
1665978430.2782483,-2,-3,-7,-3,-2,-1,1,0
1665978430.2790787,-2,-2,-1,1,-1,0,-1,-2
1665978430.285393,-4,-2,-2,-1,6,3,2,-1
1665978430.286274,-1,2,1,-4,2,0,-2,-1
1665978430.3008435,3,-11,1,3,2,-2,0,-1
1665978430.3019295,0,-4,2,-2,-1,1,-4,-2
1665978430.3081243,-3,3,3,-6,-2,-6,-1,0
1665978430.3094563,0,1,-1,2,0,-2,0,-2
1665978430.3249052,1,5,0,3,1,-2,-4,-4
1665978430.3261096,-4,0,-1,-3,-2,-2,0,0
1665978430.328241,0,-3,-2,2,-2,2,-2,1
1665978430.3352752,3,-4,-4,-5,-3,0,-5,-1
1665978430.3384843,1,3,-1,-1,-3,-2,1,-2
1665978430.3396215,-3,-2,2,0,0,-4,-2,-3
1665978430.3467894,0,3,-1,1,-3,-3,0,-2
1665978430.34803,1,0,-3,1,1,-2,-3,-2
1665978430.3630557,0,0,-6,-1,1,-4,-1,0
1665978430.3650813,1,-2,-3,-4,0,1,-2,0
1665978430.3692906,0,-1,5,1,-1,-2,1,-3
1665978430.37133,0,-2,-3,1,-5,1,1,-1
1665978430.3856554,1,1,0,-1,-2,0,-3,1
1665978430.3877423,0,-4,-7,1,1,-5,-2,0
1665978430.3915524,0,-1,0,-2,2,2,-2,0
1665978430.3937054,-1,-2,3,-3,-4,-2,-1,-2
1665978430.400462,2,-1,-3,2,2,-3,0,2
1665978430.4026308,-3,1,-2,0,-2,5,-2,-4
1665978430.406654,3,3,-3,-2,2,-3,0,2
1665978430.408785,-3,-3,1,-5,0,-1,-1,-3
1665978430.422402,0,-7,-5,-1,-1,1,-3,-3
1665978430.424507,-5,5,4,-1,2,2,0,1
1665978430.429161,0,-6,-1,0,-2,-1,-1,1
1665978430.4317758,2,-4,-2,-1,-2,-4,-3,-2
1665978430.446091,-4,5,2,-3,3,1,-1,-2
1665978430.4482713,-1,-6,-3,0,-2,-4,-2,1
1665978430.4521053,-1,-4,0,-2,0,-2,-1,0
1665978430.4540758,0,-1,-4,-2,4,2,1,1
1665978430.4598224,-1,-4,-1,3,-5,-3,2,2
1665978430.461919,-1,5,-2,-3,-2,0,-3,-4
1665978430.466794,0,-2,-1,1,-1,-1,-1,-3
1665978430.468684,-3,1,1,-3,0,1,2,-1
1665978430.482798,-3,-1,-4,-3,-2,-4,0,-2
1665978430.484875,0,-4,-1,1,1,-2,0,-2
1665978430.488945,0,6,-1,-4,1,-1,-1,3
1665978430.4910164,-1,-11,-5,1,-1,-2,-4,-3
1665978430.5056994,-2,6,2,-1,0,2,-1,-2
1665978430.5079548,0,-2,3,2,-1,-4,1,-1
1665978430.5117972,2,3,0,-2,-3,-2,-4,-1
1665978430.513728,-2,-8,1,-1,0,0,-1,-2
1665978430.519915,-1,-2,-2,-3,-3,-4,-2,3
1665978430.521898,-2,-4,-2,-1,-2,0,-1,-1
1665978430.5266154,-4,1,0,-1,0,-2,-3,-1
1665978430.5287795,0,2,1,0,-2,0,-3,-1
1665978430.542507,-3,1,0,2,-2,1,2,-2
1665978430.5445921,2,-3,1,-5,-3,0,-3,-1
1665978430.549331,-5,-6,-2,0,-1,2,2,-1
1665978430.5513692,0,3,-1,-2,-1,-2,0,-1
1665978430.5663695,4,-3,-3,-2,-1,-2,-3,0
1665978430.5684104,3,-3,-1,1,3,2,-3,-2
1665978430.5718694,-3,4,-2,4,-4,0,-1,-5
1665978430.5738697,-1,1,3,0,4,-1,1,1
1665978430.5798059,0,-1,-1,1,0,0,-2,0
1665978430.5818527,-5,-5,-2,-4,-1,-2,2,-3
1665978430.5881262,1,-3,-6,-5,-1,-1,1,-2
1665978430.59018,5,2,-3,4,-2,-3,-2,1
1665978430.6024053,0,-1,1,-2,-2,-1,-2,-1
1665978430.6044562,-1,4,-4,-4,-2,2,-1,-1
1665978430.609205,4,2,0,1,-1,-4,-4,0
1665978430.6113267,-6,2,-2,1,-3,-1,2,1
1665978430.6255853,-1,-2,-2,-4,1,-2,-1,0
1665978430.6277747,0,2,-2,3,-3,-2,1,2
1665978430.631327,2,-1,-2,-2,0,1,-2,-3
1665978430.6333005,3,3,-2,-2,0,0,-2,-2
1665978430.6486638,1,-6,4,-1,0,1,-1,0
1665978430.6510866,-2,0,1,0,-1,-3,0,-1
1665978430.6545749,-4,-9,0,-1,0,2,-1,1
1665978430.6566305,-4,2,-2,-3,2,-1,-3,0
1665978430.6626887,2,-2,-1,0,1,-1,0,0
1665978430.6648982,4,0,-6,-3,0,-2,-3,-3
1665978430.67659,0,-2,0,2,-3,-5,-1,-2
1665978430.6785693,-1,-4,-2,6,0,1,-2,0
1665978430.6856084,-2,1,-1,-1,-1,0,1,-1
1665978430.6876247,2,-3,2,0,0,-2,-2,0
1665978430.6911902,-6,-8,-4,-5,1,1,-1,-1
1665978430.6932118,3,-1,-2,-5,-2,-2,-4,-1
1665978430.699532,-1,5,-1,3,-3,-1,-4,-3
1665978430.7017221,0,3,-4,-1,-1,0,-2,0
1665978430.7080243,-2,-2,-4,-3,2,-3,2,1
1665978430.7101336,2,-1,-2,-3,-1,-1,1,-1
1665978430.7239892,-4,-4,-3,-3,-3,-4,-3,-6
1665978430.7260826,1,3,0,-2,-1,-2,1,0
1665978430.7288344,3,-5,2,5,-2,1,-1,-3
1665978430.7316926,1,-4,-2,1,-2,0,3,-4
1665978430.745689,-1,5,2,1,1,-1,1,2
1665978430.747883,-4,-9,-3,1,-4,-1,0,0
1665978430.7512467,4,1,1,-4,0,-2,-3,-2
1665978430.753271,-3,3,-3,1,-5,-2,3,1
1665978430.7678325,3,-4,-1,1,-2,4,-5,-2
1665978430.7698565,1,-8,-2,-1,-4,-1,1,0
1665978430.7726429,1,4,2,-1,-2,-2,-3,-2
1665978430.7749527,-2,-2,1,-6,1,0,-1,-2
1665978430.7838173,-1,-4,-4,1,-2,-4,0,-2
1665978430.7858021,1,-2,-1,0,-1,0,-3,0
1665978430.7889714,1,2,-1,-3,-5,0,0,2
1665978430.7910333,-2,-2,6,1,-1,-3,-4,-4
1665978430.8049114,-2,0,-6,1,-1,-1,0,1
1665978430.8069642,-2,-3,1,-3,3,-4,-2,-2
1665978430.8098674,-4,-4,-8,3,-1,-4,-1,-3
1665978430.8121846,1,0,4,-1,-3,-4,-2,0
1665978430.827318,0,3,-3,-3,-1,5,-1,-2
1665978430.8294277,-3,4,2,2,0,-3,1,-3
1665978430.8323932,1,1,-6,1,-3,-3,-6,-1
1665978430.8345387,2,-5,-4,0,1,0,-3,0
1665978430.8430107,0,-7,0,-4,0,-1,2,2
1665978430.8455532,1,2,-2,1,-1,-4,-4,-6
1665978430.8488731,1,-1,0,-2,1,-1,-2,-2
1665978430.8509674,-4,5,0,0,-2,0,1,-1
1665978430.8653355,-1,-6,1,-2,1,1,-6,-3
1665978430.8678422,-1,0,-2,0,-1,-1,2,0
1665978430.870544,-5,1,6,-3,3,-1,2,1
1665978430.8724873,2,-6,-7,-3,-4,-1,-4,1
1665978430.8872848,2,5,1,0,0,-2,-3,1
1665978430.8894126,-5,-3,2,-3,-3,1,-1,-5
1665978430.8922298,-3,1,-3,-1,-1,1,-3,-2
1665978430.8944185,4,-4,-5,-1,3,0,-2,-6
1665978430.9031634,-1,0,4,-2,-1,-2,0,0
1665978430.9051096,-3,-3,0,0,1,-1,2,4
1665978430.9090338,2,-2,-1,2,-6,-1,-3,-7
1665978430.9110863,-4,-4,-1,-2,1,1,0,-3
1665978430.9248426,0,1,1,-2,0,-3,-1,1
1665978430.9268196,0,-4,0,-2,-3,1,-2,1
1665978430.9292984,3,4,1,3,1,-1,4,2
1665978430.931463,0,0,-2,3,-1,-1,0,1
1665978430.9544888,-1,-2,-2,-3,2,-2,-1,0
1665978430.9561515,2,1,-4,0,-1,0,-4,-1
1665978430.9586432,-2,-6,-1,0,-1,3,0,-3
1665978430.960578,-6,3,1,0,-1,-1,0,1
1665978430.9644036,4,-2,-4,0,1,-1,-1,0
1665978430.9661603,-3,2,-1,2,-1,1,0,1
1665978430.968599,-3,2,5,-4,-1,2,4,-3
1665978430.9703648,2,-2,0,-3,-3,-2,-2,2
1665978430.9845765,-3,-5,1,-3,-4,0,-2,-3
1665978430.986501,1,5,0,1,-2,0,-1,-2
1665978430.9913795,-1,-3,-5,1,0,-1,-1,-1
1665978430.9934382,0,-3,-2,-2,-3,-1,0,2
1665978431.0071127,1,2,-3,-3,0,-1,0,2
1665978431.0092852,0,-1,0,0,0,0,0,-3
1665978431.0126595,4,-4,-3,2,-2,-2,-5,0
1665978431.01512,-2,-5,4,-2,-1,-1,0,0
1665978431.0231164,-5,2,0,2,-2,0,0,-2
1665978431.025045,0,-4,-2,-3,-1,-1,-1,-3
1665978431.0295246,-1,-2,-4,0,0,1,-3,2
1665978431.031855,0,-1,-4,-1,0,-3,0,-4
1665978431.0462565,-1,-2,-1,-3,-3,0,2,-6
1665978431.0482779,1,-5,1,-1,0,-2,0,-2
1665978431.0516644,-1,0,0,5,1,-4,4,2
1665978431.0536408,-3,1,1,-1,-1,1,0,1
1665978431.0678542,2,-3,-3,3,-2,-2,-3,-1
1665978431.0697527,-1,0,-2,-1,-4,-2,-5,4
1665978431.0725543,-2,0,-3,-7,0,-1,1,-6
1665978431.074699,-1,-1,0,-3,2,-3,-2,1
1665978431.0835965,0,-3,-2,0,1,0,1,-3
1665978431.085648,-1,-4,0,1,-2,-5,-2,4
1665978431.0892143,-4,-2,4,-1,-4,-1,0,2
1665978431.0913296,4,2,2,2,-5,-2,-2,-5
1665978431.1043024,-1,-3,3,-2,-2,-2,-1,0
1665978431.1064556,0,2,1,-4,1,-1,-2,-2
1665978431.1125371,2,-3,-3,0,-3,4,-1,-1
1665978431.11466,0,2,-3,-1,2,2,0,-1
1665978431.1274614,-1,-1,0,2,-3,-2,0,0
1665978431.1295655,1,-2,-3,-3,-1,3,-3,3
1665978431.1323597,-4,0,3,-5,1,-4,0,-3
1665978431.1342893,-4,-2,2,-3,-3,-3,-1,0
1665978431.1434546,-4,-8,-3,-3,-1,-2,1,-4
1665978431.1455479,-1,0,-4,-1,-3,1,-1,-6
1665978431.1490355,0,-6,-3,1,-3,0,-2,4
1665978431.151175,-1,-2,-1,-1,0,1,-4,5
1665978431.164654,3,-3,-2,-1,1,0,-2,-5
1665978431.1668491,0,-2,1,1,-3,-2,4,4
1665978431.1715899,-3,0,1,-3,0,1,-1,-2
1665978431.173517,2,-4,-2,2,-2,1,-1,-3
1665978431.188139,-3,1,2,0,2,-1,-5,1
1665978431.190209,-3,-4,-1,1,-4,2,-1,-1
1665978431.192869,-1,-2,-1,1,0,0,-1,1
1665978431.1953225,-3,-3,-1,3,1,-4,-2,0
1665978431.2030342,-1,4,-1,-1,-4,-1,0,-2
1665978431.2050776,0,1,-1,-2,1,0,-2,-2
1665978431.209244,-1,-3,-3,-1,-1,-4,-4,-3
1665978431.2111976,-1,0,-2,0,-4,0,0,-1
1665978431.2242491,-2,1,0,-1,1,1,-1,1
1665978431.2264373,0,-2,-5,-1,2,-1,1,-4
1665978431.2328565,-1,0,-3,-2,-3,-1,-3,-1
1665978431.2350118,-8,2,0,-3,0,-3,0,-1
1665978431.2476957,0,-4,-1,-2,-3,2,-2,-2
1665978431.2498372,1,3,2,-3,-2,1,-3,1
1665978431.2525716,-2,-2,-4,-3,-1,-2,0,2
1665978431.254694,2,-3,0,2,-1,-1,1,-3
1665978431.2631614,4,2,3,-1,1,-2,-2,-1
1665978431.2652044,-2,-3,0,-2,-2,-1,-1,0
1665978431.269113,0,1,1,1,-2,-3,-1,-1
1665978431.2713802,0,-5,-1,-3,0,2,2,-1
1665978431.2841392,-2,3,-1,1,0,-1,-3,3
1665978431.2863598,-3,-1,1,0,-2,0,-3,-19
1665978431.2916052,-1,-1,-1,1,-3,-3,-2,4
1665978431.2935693,2,2,1,-1,3,-2,-1,-1
1665978431.3076568,-3,-4,-1,-1,1,0,-4,4
1665978431.3096662,-4,-1,-1,-3,0,-4,0,3
1665978431.3124013,2,2,-1,-1,-1,3,-1,-3
1665978431.314397,0,-2,-10,-1,0,-3,-1,-2
1665978431.3230042,2,0,2,0,-3,1,0,2
1665978431.3249164,1,1,-2,-2,0,-2,-3,-1
1665978431.3290346,-1,-1,1,-3,-1,0,-2,-2
1665978431.3309927,-3,0,0,1,4,-1,1,2
1665978431.3444011,0,-4,-3,-1,-1,-2,0,-2
1665978431.3463116,-1,-1,-2,1,0,0,-1,3
1665978431.3517985,-1,-2,0,0,-1,1,-2,0
1665978431.3539557,2,1,2,-3,-3,1,-5,-4
1665978431.3678434,0,2,-1,1,-2,-4,3,-3
1665978431.369968,1,-3,-4,-2,0,0,1,3
1665978431.3727458,-6,-6,2,1,0,-1,4,-3
1665978431.3749208,4,-4,-6,1,-3,-1,-2,-1
1665978431.383706,0,1,0,-1,0,-1,1,-1
1665978431.3858585,0,2,-3,-2,1,-2,1,3
1665978431.389175,4,-7,-3,0,0,-3,-1,-2
1665978431.3913708,-1,-1,-2,1,-1,-4,-2,0
1665978431.4042265,-1,-2,-5,-2,0,-1,-1,-4
1665978431.4064627,1,1,2,1,2,-3,0,1
1665978431.4122539,1,2,0,0,0,1,-6,-6
1665978431.4143598,-3,1,1,-2,-3,2,1,-3
1665978431.4279103,2,-3,0,-2,-2,-2,-3,1
1665978431.430112,1,-5,-2,4,0,-2,-4,0
1665978431.4329681,-5,0,-1,-3,0,-2,2,1
1665978431.4350739,-2,1,-1,1,-4,-1,0,1
1665978431.4434526,-1,-3,-3,-2,-2,-1,-3,0
1665978431.4457557,-4,-3,-1,-3,1,3,1,-10
1665978431.449117,5,1,4,0,-1,0,-2,7
1665978431.4511957,2,-3,1,-3,1,-5,0,-1
1665978431.46517,-4,-11,-6,-7,1,-1,-4,-3
1665978431.4672985,4,-1,2,2,-4,1,1,6
1665978431.4718,-6,-10,-13,-6,-1,-1,2,1
1665978431.4737737,6,9,7,-1,0,-2,-3,-3
1665978431.4875221,0,-3,-5,2,-1,1,-4,-8
1665978431.4895263,-3,3,3,0,-2,-1,0,-17
1665978431.4921217,4,3,2,4,-1,2,1,1
1665978431.4942362,-8,-10,-15,-3,0,-3,0,5
1665978431.510313,-2,-1,-5,-1,1,-3,0,-1
1665978431.5126135,3,3,-4,0,3,-3,-6,3
1665978431.5155113,0,0,-1,0,-1,-1,-1,2
1665978431.5176315,-2,-2,6,-1,-5,-8,-1,8
1665978431.5242875,-2,7,3,1,3,1,1,-8
1665978431.5264397,-1,-7,-7,0,-4,1,-2,-6
1665978431.532982,-1,-9,-12,-4,1,-6,3,5
1665978431.5350294,0,-1,5,-1,1,1,-4,-5
1665978431.548151,2,4,4,0,-2,-2,0,6
1665978431.5506272,-1,10,-1,1,1,0,3,6
1665978431.5533638,-5,-13,-2,-4,-3,-4,-3,-11
1665978431.555394,3,-1,-7,0,0,5,4,6
1665978431.5631433,4,-5,-12,-2,-4,-1,-12,-7
1665978431.5650651,4,5,20,2,-1,2,-5,-2
1665978431.5691245,-7,-23,-1,-7,-4,1,-2,-5
1665978431.5711386,4,8,-9,1,2,1,-1,-2
1665978431.58439,-1,8,3,2,-4,-1,-3,1
1665978431.5863771,2,0,10,1,-3,-3,-3,-1
1665978431.5922904,-5,12,-2,1,3,0,0,-22
1665978431.5943365,2,-12,-1,-4,0,-1,-1,-14
1665978431.6078749,-3,1,9,-2,-1,0,5,2
1665978431.6099691,1,2,3,2,0,0,-1,7
1665978431.6127737,8,16,10,1,2,-1,6,4
1665978431.6148148,0,-4,-5,-1,-4,-2,1,-21
1665978431.6312134,-2,-10,-16,1,3,-1,-9,1
1665978431.6332393,0,3,-3,-6,-1,-4,2,-5
1665978431.635984,3,17,19,7,-3,-1,-5,12
1665978431.6381896,-3,5,4,0,-4,1,3,9
1665978431.644937,-3,-40,-2,-5,-2,4,3,-7
1665978431.647093,0,-1,-2,2,0,-2,3,-4
1665978431.6518316,3,7,3,-2,-2,-2,-5,-3
1665978431.6538045,-1,0,-5,-2,0,2,-1,-6
1665978431.6677802,4,13,7,2,-2,-3,4,9
1665978431.6698334,-3,-14,-14,-2,-1,1,-1,1
1665978431.6725273,3,-10,-9,-2,0,2,0,-4
1665978431.6747193,-2,0,2,-3,0,-3,-6,1
1665978431.690045,-1,1,0,2,0,-3,3,-2
1665978431.69229,0,1,-7,-2,-1,0,-2,3
1665978431.6955497,0,4,0,3,-1,-1,-2,0
1665978431.6976542,-7,-3,-3,-2,1,-3,-2,3
1665978431.7043595,-2,9,-2,-1,-2,-2,-1,-6
1665978431.7063942,-2,0,2,1,-2,3,-1,-2
1665978431.712775,-2,-6,-4,0,1,-3,-2,-6
1665978431.7148726,1,-3,3,-1,-3,0,0,0
1665978431.7272809,-9,0,-9,-6,-2,0,-3,-1
1665978431.7291605,-1,-4,2,-1,-2,-1,-3,3
1665978431.7318268,2,1,-5,2,-5,0,-4,6
1665978431.7338188,0,-5,9,3,0,-5,-3,-4
1665978431.7501254,6,-1,-9,3,-1,-2,1,-8
1665978431.752149,1,-4,-5,-4,0,-3,-3,-10
1665978431.7550101,2,-1,-1,-4,-1,2,4,2
1665978431.757006,-2,4,0,-3,-2,2,-1,11
1665978431.7662683,-3,1,0,-4,0,-1,3,3
1665978431.7682657,-4,0,-8,-3,0,-5,-2,-1
1665978431.7718637,-1,3,-5,5,-2,2,-2,-2
1665978431.7738307,0,-6,-1,2,-2,-2,-1,-2
1665978431.7872932,2,4,8,2,1,0,-5,3
1665978431.7893438,-3,-3,-2,-3,-1,-1,1,3
1665978431.792257,-1,-3,1,-5,-2,-4,-4,-1
1665978431.7943923,-3,-4,-3,6,-1,-1,2,-2
1665978431.8101065,0,-1,1,-2,-6,0,0,-1
1665978431.8122716,0,0,-3,-3,-1,1,-1,-2
1665978431.8150601,-2,2,2,0,2,-1,-3,-2
1665978431.8171656,4,0,-3,-2,0,0,0,-1
1665978431.8258383,0,4,2,-1,-2,-1,3,0
1665978431.8279023,-2,-6,0,2,-1,-2,-2,0
1665978431.8321397,1,-4,-7,-4,0,1,-1,0
1665978431.8346827,1,-5,-1,-2,0,-3,0,-3
1665978431.8478882,-1,3,2,-1,-1,-1,-2,4
1665978431.8498256,-1,1,-4,-1,1,-2,1,3
1665978431.8524952,-1,0,-2,2,-1,0,1,1
1665978431.8545308,-6,-4,-1,-3,-2,1,-2,-5
1665978431.8701007,-1,7,1,0,-3,-5,-7,-4
1665978431.8723023,-8,-4,5,-3,-1,-1,-1,1
1665978431.8751504,-5,-9,3,-4,1,-4,1,-6
1665978431.8772094,4,4,-4,-4,-5,3,-2,0
1665978431.8857856,-2,-3,1,-1,0,2,0,-1
1665978431.887801,0,-1,0,0,-2,1,1,0
1665978431.891875,-1,-1,1,0,-4,1,-2,1
1665978431.8939855,-4,-1,-3,-6,1,-4,-2,0
1665978431.9069993,1,0,0,1,1,-4,0,-3
1665978431.9092221,0,2,1,0,-3,3,-2,2
1665978431.9153419,0,0,-3,0,1,-2,-4,1
1665978431.917387,-2,-2,1,1,-3,-3,-2,-6
1665978431.9309921,-1,-3,0,-4,0,0,1,1
1665978431.933091,-4,-3,-1,0,1,-4,2,-3
1665978431.9361334,1,-1,-4,-1,-3,0,-1,-6
1665978431.938214,-2,1,1,2,0,0,-3,-2
1665978431.9460912,3,5,-4,-2,2,0,-1,1
1665978431.948196,4,-2,0,0,-3,0,0,-1
1665978431.951807,-6,2,0,-4,-1,-2,2,0
1665978431.9538257,3,3,2,2,1,-3,0,1
1665978431.9664242,-2,-1,-6,1,0,0,-4,-2
1665978431.9686184,3,-4,-2,-1,0,-3,-3,1
1665978431.9739394,-4,1,0,0,-2,-5,2,-2
1665978431.9758193,-1,-5,-3,-5,-1,2,-1,-1
1665978431.9898846,-1,0,1,2,-1,-1,1,1
1665978431.9918964,0,3,-2,0,0,2,-3,-1
1665978431.9946437,3,-2,0,2,-2,1,-4,-2
1665978431.9966354,1,0,3,1,0,-3,3,0
1665978432.0058253,0,-2,1,2,0,0,-1,-7
1665978432.007944,-1,-4,1,0,-1,-2,-5,4
1665978432.0115018,-2,-1,-3,-1,0,1,2,2
1665978432.0135133,-1,-3,-3,-2,0,-1,-4,-11
1665978432.0273275,1,-2,-1,-2,3,-2,2,2
1665978432.0294006,1,-3,-3,-4,0,-5,1,-4
1665978432.0341625,3,-1,1,4,-1,-2,-3,4
1665978432.0361829,-1,0,-3,-2,2,0,1,3
1665978432.0500674,-2,-2,-5,3,-5,-2,1,-1
1665978432.05201,-3,-8,1,-3,-4,-3,1,-4
1665978432.0545697,0,2,4,-2,2,-1,1,-3
1665978432.056455,-2,-1,-1,0,1,0,-1,3
1665978432.06589,-2,-6,1,-3,-5,-3,-1,-2
1665978432.0678236,1,-1,-4,1,0,1,0,0
1665978432.0716865,-1,0,0,0,1,0,-2,-3
1665978432.0736046,0,0,3,-3,-2,-2,-5,-1
1665978432.0867941,-2,2,0,-1,-4,-1,1,0
1665978432.088826,-1,5,2,3,-2,2,-1,0
1665978432.0946617,3,-7,-5,-3,-2,-7,-3,-2
1665978432.0968242,1,5,0,0,1,0,-7,0
1665978432.1104138,1,1,4,0,1,1,0,-1
1665978432.112493,1,0,-5,-3,-1,2,-1,-3
1665978432.115157,-1,1,0,-2,0,0,1,-3
1665978432.1174304,-1,-2,-2,1,0,-2,-1,4
1665978432.1261392,1,1,-1,0,-1,-4,-2,-3
1665978432.1281314,-2,-5,-6,0,2,-2,-5,-2
1665978432.131655,1,3,-6,-5,-2,-2,3,0
1665978432.133902,-3,-9,-1,-3,-3,-2,-2,-3
1665978432.1485932,3,-4,-1,-4,-1,-1,-1,1
1665978432.1511037,-3,-3,-2,0,-3,-2,0,0
1665978432.1558597,-3,-5,2,-3,-1,5,-4,0
1665978432.1579945,-4,5,-4,0,0,1,2,1
1665978432.169935,0,1,-2,-1,3,0,0,-1
1665978432.1720495,-2,0,4,0,-2,-4,-3,3
1665978432.1749008,1,2,-1,-4,2,-3,1,3
1665978432.1770458,0,-2,1,-1,-4,-1,-1,-1
1665978432.1855633,-4,-6,-2,0,-3,-3,0,-1
1665978432.1877635,1,0,-1,-3,-2,-1,0,-2
1665978432.1926954,3,-3,-2,0,-2,0,0,-1
1665978432.1957526,2,-1,-4,2,1,0,-1,1
1665978432.20684,-1,2,1,-3,-1,2,-2,-1
1665978432.2089496,4,4,4,2,0,-1,-1,-6
1665978432.215019,7,-5,-4,2,-1,-2,-2,1
1665978432.2171254,2,-3,3,-1,-1,2,2,-3
1665978432.2312775,-1,-1,-9,0,0,-3,-4,0
1665978432.2333257,6,-13,0,1,-3,2,-1,5
1665978432.2363803,-4,1,-7,-2,-4,-3,-4,-4
1665978432.2385173,3,7,8,0,2,-3,-1,-3
1665978432.2459826,4,1,-5,-1,-3,-1,-1,0
1665978432.2479646,3,-5,0,-1,-3,1,-2,-2
1665978432.2518506,-4,1,3,1,-1,-2,-1,-1
1665978432.2538388,2,-4,-4,-2,-1,-1,1,1
1665978432.267151,-3,-4,-3,-4,2,0,-1,1
1665978432.269239,-6,-3,-2,-5,-1,-3,1,-4
1665978432.274513,-3,2,2,0,-1,4,-3,-4
1665978432.276651,-3,-9,-1,-2,0,-1,0,1
1665978432.2901955,2,-5,9,2,-3,-2,0,-4
1665978432.2922611,-1,0,-8,3,3,1,-3,-1
1665978432.2952006,-1,-7,3,0,-1,-3,-2,-1
1665978432.2973566,-2,-1,0,-2,-2,-4,1,1
1665978432.3058162,-6,-1,-7,-3,1,-4,-4,-3
1665978432.307806,7,1,3,-1,-5,-3,-3,-2
1665978432.3128636,2,2,-2,0,-3,1,1,-2
1665978432.314945,-6,2,-2,5,2,0,-2,0
1665978432.326932,-6,5,4,-1,0,7,-1,1
1665978432.3290548,-1,7,-6,2,4,1,0,1
1665978432.3342211,-9,2,-7,-3,-2,6,-1,-2
1665978432.3362577,0,2,-4,-2,-2,-3,-1,2
1665978432.3502607,6,-7,4,0,-1,0,-2,-4
1665978432.3523474,1,-4,-7,-3,3,-2,-3,1
1665978432.3550518,-2,0,5,-4,-2,-4,-1,-2
1665978432.3570058,2,-6,-6,2,-4,-2,-1,-4
1665978432.365854,1,-3,4,2,-4,-3,-1,1
1665978432.3678486,-8,-7,-9,-9,-3,2,0,-4
1665978432.3716273,2,14,-4,-1,0,-2,-1,1
1665978432.3737261,4,5,0,-2,-4,0,-1,0
1665978432.386958,6,-3,-2,2,-1,-5,1,-4
1665978432.389345,-11,1,7,3,2,1,-2,-2
1665978432.3949192,7,-5,-2,4,-4,-1,-4,-3
1665978432.3969128,1,-2,-5,-7,1,1,-3,-6
1665978432.4099813,0,10,1,-2,-2,-1,0,1
1665978432.4121823,0,-6,-6,-1,-1,-1,1,2
1665978432.4150856,1,-12,-5,-2,2,0,3,0
1665978432.4175231,0,-2,8,4,0,-2,-2,-1
1665978432.4332726,-3,-2,-3,-5,-1,1,0,2
1665978432.4353127,1,7,1,-2,-2,-7,1,-5
1665978432.4381151,-5,4,5,2,2,0,0,0
1665978432.4403162,-2,-5,0,-3,-4,1,1,-2
1665978432.4479325,-5,7,-6,0,1,0,-2,-2
1665978432.4499285,-1,5,7,-1,-5,-6,-2,1
1665978432.4543676,-4,4,-1,-1,0,-7,-1,3
1665978432.4565756,3,7,-4,-2,-3,2,-1,-1
1665978432.4702325,-2,4,9,1,0,-4,0,2
1665978432.4722607,1,0,-5,-4,1,1,-2,-1
1665978432.4751985,-7,-11,-1,2,-3,-4,-3,1
1665978432.4773176,-1,-2,-1,1,-1,3,3,-3
1665978432.4857976,-1,-5,-8,-3,-3,-8,0,-2
1665978432.4878542,3,-13,4,2,0,3,1,6
1665978432.4919715,3,-9,-1,-2,-4,2,-19,-16
1665978432.4940805,1,-7,6,1,-1,-4,-1,1
1665978432.5070899,-2,0,0,-1,-2,3,-5,0
1665978432.5090997,0,-14,-4,1,-2,-3,0,-5
1665978432.5146923,0,-1,0,-4,-6,-8,4,4
1665978432.516668,-7,11,-8,0,-1,-5,-4,7
1665978432.530931,-6,-7,-1,-4,-3,5,-2,2
1665978432.533003,-9,-1,-4,-1,1,-1,-6,-20
1665978432.5358853,-20,4,-2,-1,1,7,4,0
1665978432.537948,2,3,-2,-2,3,2,-3,-2
1665978432.54679,3,-2,7,3,1,-3,-3,4
1665978432.5488813,0,-5,-2,-2,-2,0,1,4
1665978432.5518675,6,-9,-2,-1,-1,1,4,1
1665978432.553892,1,-10,-1,2,0,-7,-6,-6
1665978432.567207,3,2,5,-3,2,-4,1,-8
1665978432.5692775,4,2,3,5,1,5,1,3
1665978432.5742984,12,0,1,-1,0,-5,-3,-1
1665978432.5763187,-4,0,-6,-1,0,-3,1,2
1665978432.5902023,2,-4,-6,-1,0,7,-5,-3
1665978432.5922196,-1,5,0,-3,2,-2,0,3
1665978432.5956578,2,-3,1,1,4,-2,1,1
1665978432.598014,3,-4,-4,1,1,-3,-3,-5
1665978432.6057675,3,-4,-2,-3,-1,-6,2,-3
1665978432.6079764,2,7,0,-2,0,4,2,1
1665978432.6117258,-1,-1,-17,-1,-1,-5,3,7
1665978432.6136856,0,2,-5,-4,-3,-5,-17,-17
1665978432.6269968,-7,-9,-3,4,-2,10,2,6
1665978432.6289544,3,-1,-3,1,-3,-1,-1,2
1665978432.6342452,5,0,5,-2,1,-5,-1,0
1665978432.6363626,1,-4,-3,-2,-4,6,4,6
1665978432.6500814,3,-2,-3,-1,-1,-1,1,-2
1665978432.6521091,-3,0,1,-2,-4,-5,-4,0
1665978432.6548696,2,2,0,-2,-1,0,1,-2
1665978432.6567912,1,-4,-2,-3,-2,0,3,2
1665978432.666093,-1,2,-8,0,0,0,-5,-6
1665978432.6680763,0,-2,0,-1,-2,-5,-2,3
1665978432.6718163,-3,-3,-7,-2,-3,-8,-3,1
1665978432.6737475,0,-3,3,-2,-5,5,-1,3
1665978432.6870115,1,-16,-22,0,-4,-5,5,-3
1665978432.6890438,3,7,5,-1,-2,2,-8,-8
1665978432.6945772,-3,-4,-1,2,-4,-7,2,-2
1665978432.6968007,-1,-3,2,-2,1,0,3,1
1665978432.7101195,-1,2,2,-2,0,0,0,3
1665978432.712245,-4,-4,-4,-3,-3,2,-2,-5
1665978432.7150564,3,-2,2,-3,-2,7,-1,-4
1665978432.7171643,-2,-2,1,0,1,1,-1,-2
1665978432.7256029,5,0,0,0,-3,-2,-3,1
1665978432.7277632,-6,0,-9,-4,-2,6,4,-1
1665978432.7321162,-4,0,6,1,3,10,-3,-5
1665978432.7342248,1,4,5,0,4,-5,6,4
1665978432.7472115,0,0,-9,2,0,4,-6,-3
1665978432.74927,-1,5,-14,-3,-7,-12,-3,0
1665978432.7542539,3,3,0,-1,1,-4,-3,0
1665978432.7561538,0,1,0,0,-2,-6,-2,-3
1665978432.7702332,-2,2,7,2,0,-5,-2,-1
1665978432.7722752,0,-1,2,4,2,-7,-2,0
1665978432.7749512,1,2,-3,-2,-4,-1,-1,-2
1665978432.7770827,-2,1,-2,-1,0,3,-1,1
1665978432.7860475,4,3,0,-3,-1,3,0,-4
1665978432.7880433,2,-1,2,-1,-2,3,-2,1
1665978432.7920256,3,0,5,1,-4,4,-2,3
1665978432.7941215,-2,-4,-3,1,-3,3,-1,-5
1665978432.806953,-1,-4,3,-3,-3,2,1,-15
1665978432.8091216,-2,1,8,0,0,-4,2,-1
1665978432.8147674,-3,-3,-8,-1,-1,0,8,6
1665978432.816869,1,3,9,4,-3,1,1,2
1665978432.8304164,-4,-2,-2,-1,1,-2,-5,4
1665978432.8326175,-4,1,2,-5,1,0,-1,-4
1665978432.8353648,0,-4,-1,-2,0,-2,-4,-4
1665978432.8372626,-4,-2,-4,-4,0,4,-1,6
1665978432.8543413,-3,1,2,2,2,-4,-2,1
1665978432.856412,1,-1,4,-2,-2,-1,0,1
1665978432.859107,-5,3,-5,2,-1,3,-1,4
1665978432.8613036,2,-1,-3,-3,-3,-2,-1,-3
1665978432.8669548,1,1,5,-3,0,0,-3,2
1665978432.868924,0,-6,-2,0,1,4,1,4
1665978432.8741817,-1,0,3,3,-2,6,-4,-3
1665978432.8761702,-3,3,-4,-2,2,-6,-4,-5
1665978432.8894901,0,-2,3,-3,-4,-6,-2,-2
1665978432.8915532,2,2,-3,-4,-1,-11,1,3
1665978432.897447,0,6,-2,-2,-1,0,-2,-5
1665978432.8996274,1,-5,2,0,1,1,1,-1
1665978432.9126837,-3,-1,-1,0,-3,-2,1,4
1665978432.914671,-2,-3,-3,3,2,-4,-2,-1
1665978432.9173796,1,-3,-2,0,0,-4,6,1
1665978432.919292,-4,-4,-3,-2,-2,-5,-3,-2
1665978432.9269664,-4,-2,-3,-1,-1,3,1,2
1665978432.928977,4,-3,1,-2,-3,3,0,3
1665978432.9423795,0,-6,2,0,2,3,-1,-5
1665978432.9444277,3,-3,2,1,-1,1,-3,-5
1665978432.9490528,2,0,-1,0,-1,2,4,3
1665978432.9509091,-3,-6,1,-2,1,5,-13,-15
1665978432.956785,-1,-1,-1,-2,-1,-3,-1,2
1665978432.9585037,-12,-3,-3,0,-5,-5,-3,-3
1665978432.9724426,-1,-1,2,-3,0,3,-2,1
1665978432.9742458,-2,1,-4,-1,4,1,-2,1
1665978432.976776,-5,-7,-3,-5,-1,-4,-1,-7
1665978432.9790177,4,-3,0,3,-1,3,2,-2
1665978432.9866157,0,-4,-4,3,-2,-6,-4,0
1665978432.988528,-4,0,-3,4,1,5,-1,-1
1665978432.9943407,4,-1,2,-1,-4,2,-1,4
1665978432.996706,4,-8,-4,1,0,0,-1,-3
1665978433.0095885,0,2,-3,-2,-1,1,2,0
1665978433.0116365,2,-4,-4,-4,-3,-5,-7,-3
1665978433.017588,-3,-3,4,-5,-4,-2,0,-2
1665978433.0196643,-4,0,-14,-2,0,2,5,1
1665978433.0332432,4,-4,3,4,-1,5,-9,0
1665978433.0354147,-4,-1,-3,-1,0,-5,3,-10
1665978433.038116,1,-1,2,3,-2,4,-7,0
1665978433.0400767,0,3,-1,-2,1,-1,1,-1
1665978433.047645,2,-4,-5,-2,-2,-3,2,-3
1665978433.0498679,0,-2,-1,5,-1,1,3,3
1665978433.0542295,4,0,-5,1,0,-3,-6,-8
1665978433.0561202,4,-4,-4,-2,-2,2,1,4
1665978433.0694244,-2,0,4,-2,0,-14,-10,-6
1665978433.0713534,-1,-2,0,-4,-2,6,3,8
1665978433.0770247,-3,-5,0,-1,1,-1,2,-2
1665978433.0791523,1,-2,-2,0,-3,6,-4,1
1665978433.0925646,-12,-2,-3,1,-2,-2,4,2
1665978433.0946283,0,0,-4,1,-3,0,-1,1
1665978433.0978668,-1,2,3,-4,-3,-4,-3,1
1665978433.1002119,4,2,0,-2,-1,-4,0,-1
1665978433.106769,-2,6,-5,-2,-3,-2,-2,-4
1665978433.1086035,2,-2,10,5,-3,-3,-3,-1
1665978433.1146872,-4,-2,-20,-1,-3,5,-1,0
1665978433.117036,2,1,8,1,1,-7,1,9
1665978433.1300378,4,-9,-7,0,0,2,1,-12
1665978433.1321945,0,0,-2,-2,-2,-3,2,3
1665978433.1366498,-4,-1,3,-3,-5,5,-3,-2
1665978433.1385827,-2,-1,-6,1,0,4,4,3
1665978433.1538277,-1,1,1,-1,-4,0,2,1
1665978433.1558619,0,-2,-3,-2,1,0,2,-1
1665978433.158606,-2,1,4,-1,0,-1,1,1
1665978433.1606467,-2,2,-2,-3,0,6,-7,-9
1665978433.1752696,0,-1,7,0,0,-2,-2,1
1665978433.1775396,-5,-1,-9,-5,-2,4,1,-4
1665978433.1805902,3,4,3,3,-3,-4,-4,1
1665978433.182712,-3,1,2,1,0,2,0,0
1665978433.1893594,6,4,4,-1,-1,-1,-2,8
1665978433.191236,-4,-9,-12,-4,0,-1,6,-19
1665978433.1970487,-1,1,3,0,-2,-3,-6,-9
1665978433.1990821,-3,-2,-3,-4,-5,-10,-1,0
1665978433.2125428,0,0,2,0,3,4,-2,2
1665978433.2146928,1,4,-4,-1,-3,-4,3,6
1665978433.217302,0,-4,-2,-1,-2,-23,0,-1
1665978433.219239,2,0,7,1,-2,-7,-2,-4
1665978433.226798,-3,-2,-6,-2,0,-5,2,0
1665978433.2290306,-2,0,3,0,-1,3,-5,-1
1665978433.2341118,-1,4,2,1,4,-6,3,-3
1665978433.236007,0,-1,-3,0,-3,-3,-2,2
1665978433.2495437,1,-3,0,0,3,0,-1,0
1665978433.2515526,1,0,2,2,-2,-5,-2,3
1665978433.2568054,3,3,2,3,1,3,2,2
1665978433.2588673,-4,-4,-1,0,0,0,1,-1
1665978433.2726245,-2,0,-7,-1,-4,-2,2,-2
1665978433.2747507,-12,-1,5,-1,-2,-2,-3,-3
1665978433.277729,3,-2,-2,0,4,1,-2,-6
1665978433.2799957,-1,-3,1,-4,-1,-3,-1,0
1665978433.2869685,-1,-4,-2,0,-2,-1,-2,-1
1665978433.2888978,6,-3,7,1,-1,-3,-1,7
1665978433.2945344,-4,-9,-10,1,-1,2,1,1
1665978433.2967253,1,0,-5,0,1,3,-3,-1
1665978433.3097434,5,-1,5,-1,-4,-4,-2,3
1665978433.3118699,-2,-6,-31,-3,1,-3,2,4
1665978433.3172863,2,-2,7,3,-4,1,-16,-16
1665978433.3202918,-1,0,5,-1,4,-10,2,-16
1665978433.33319,-5,-2,4,-2,0,0,-1,-2
1665978433.3352482,5,-1,11,0,-1,9,4,1
1665978433.337867,-3,-3,-7,-3,-1,-10,1,6
1665978433.3398333,-1,-3,-5,-4,-4,-1,-2,3
1665978433.3477035,0,-3,-7,1,0,-3,3,-3
1665978433.3496535,-2,-6,-3,0,0,-5,-5,-4
1665978433.3542612,2,-6,1,-4,3,8,4,4
1665978433.3561563,0,-4,5,-2,-5,3,2,3
1665978433.3696432,0,-2,-8,-3,-3,3,-2,-1
1665978433.371745,6,1,7,-3,-3,-7,-5,-2
1665978433.3774269,-4,-4,-2,4,-4,2,4,6
1665978433.3797963,-5,-3,-1,2,3,4,-5,-4
1665978433.392724,2,1,-2,1,0,2,-3,-1
1665978433.3952234,-2,-2,2,1,1,-6,-7,-4
1665978433.3981888,-1,5,5,-4,0,2,2,1
1665978433.4007838,0,1,-2,4,-3,0,-2,3
1665978433.4069965,3,-4,-2,-3,1,-1,-1,-2
1665978433.4090478,0,1,8,-1,1,5,-1,-1
1665978433.4148388,-2,-5,-10,-3,1,-10,0,1
1665978433.416884,5,-3,9,-4,2,1,0,2
1665978433.4299726,0,-3,-16,1,0,2,-3,-5
1665978433.4320498,6,2,-4,2,-4,0,1,0
1665978433.436975,2,2,-1,-3,-2,3,-1,2
1665978433.4390779,-4,-2,-2,1,-4,-3,-1,1
1665978433.4527645,-2,-2,2,-2,-1,-9,-3,-2
1665978433.4548647,2,-1,-2,0,0,1,5,7
1665978433.4575543,-7,-4,-11,-4,-2,-1,-5,-4
1665978433.459555,5,-2,3,1,-2,-3,5,-1
1665978433.4671118,3,-3,0,2,0,4,4,0
1665978433.4691029,-3,0,0,-4,-2,-9,-3,0
1665978433.4742794,2,-2,-1,3,-3,9,0,0
1665978433.476169,1,0,-9,-2,1,0,-3,1
1665978433.4986486,-1,5,-3,-1,-1,-7,-1,-3
1665978433.50063,-2,4,4,-1,-1,4,1,-6
1665978433.5034118,-1,1,1,-1,-2,-1,-1,1
1665978433.505488,-2,-1,-8,-3,-2,-3,-4,-7
1665978433.51316,-3,1,1,0,-1,2,0,1
1665978433.5152247,-4,1,-1,-3,0,-1,-3,1
1665978433.5178375,2,2,0,0,-3,-4,3,0
1665978433.5197039,-1,2,-1,-4,-2,1,-3,1
1665978433.5271273,-3,-1,-3,-1,-1,1,-3,-4
1665978433.5292778,-3,-1,3,2,-1,0,-1,-3
1665978433.5344694,-5,0,-4,-2,1,-1,-2,-10
1665978433.5365422,0,0,1,1,-1,0,-1,1
1665978433.5498478,-3,2,1,-4,-4,0,-1,1
1665978433.551955,-4,1,-2,-3,1,-8,-4,0
1665978433.5569856,-4,5,0,-2,0,-3,1,0
1665978433.5589612,0,-1,-6,1,-4,-8,-2,-3
1665978433.5727196,-5,1,-1,-2,3,-4,0,0
1665978433.574756,2,-3,2,-1,-3,1,2,1
1665978433.5774555,2,-3,8,-1,-4,-1,-1,0
1665978433.580154,-1,-1,-18,-2,0,3,-1,2
1665978433.5867887,2,-5,-2,0,0,2,0,-2
1665978433.5888226,3,0,-2,3,0,-4,-3,-3
1665978433.594604,-1,5,-5,0,3,-2,-1,2
1665978433.5970085,-4,-8,-2,-2,-5,4,1,-2
1665978433.609718,0,-4,3,1,-1,-1,-3,-5
1665978433.6117542,2,-6,-1,-2,-2,5,0,-1
1665978433.6171546,4,-4,-1,1,-2,4,3,-1
1665978433.6192029,-3,1,3,1,-2,-4,-4,-1
1665978433.633252,2,-2,-9,-1,0,2,4,7
1665978433.6354911,-3,5,-2,-4,-2,-11,-1,-3
1665978433.6384315,-2,1,3,-1,0,4,1,5
1665978433.6404612,2,-2,-6,-1,0,0,-6,-11
1665978433.6470323,-6,1,4,-2,-4,-3,-6,0
1665978433.649047,4,0,-4,-2,-1,3,-3,0
1665978433.654574,1,-1,6,-3,-1,-5,3,-3
1665978433.6566408,-5,2,-4,-4,1,-4,-3,-4
1665978433.6697872,-2,-6,-6,-2,-2,4,-6,-2
1665978433.6719465,2,0,1,0,-3,4,0,1
1665978433.6851773,-2,-5,-3,-3,-1,-6,-8,-10
1665978433.687326,2,1,8,3,-1,3,3,6
1665978433.693779,-1,-4,1,-2,-1,-1,4,0
1665978433.6959674,-2,-4,-4,2,2,-2,-3,-2
1665978433.6988237,3,0,-3,-1,-1,1,1,4
1665978433.700723,-1,-2,1,-3,-1,-6,0,2
1665978433.7070978,3,0,2,0,-2,1,0,2
1665978433.7091405,-1,-5,-2,3,1,-2,1,-1
1665978433.7156258,0,-3,-2,-1,2,0,-1,-6
1665978433.7177515,0,0,0,0,0,0,4,-2
1665978433.7322721,-1,-1,2,0,1,-3,-1,-3
1665978433.7344346,-1,-3,-8,0,-3,-3,1,1
1665978433.7372458,-3,3,1,2,-1,-1,-3,0
1665978433.7393901,3,-13,-8,-1,-4,-4,-1,-1
1665978433.7528408,1,1,3,1,1,3,-1,8
1665978433.7549179,-6,-7,1,0,-1,-3,-2,-5
1665978433.7575934,-2,-3,-6,1,-1,3,0,5
1665978433.7598672,-3,1,4,-3,0,0,-1,3
1665978433.7674599,-2,0,2,-2,-1,-7,0,-4
1665978433.7695186,2,1,1,-3,0,0,3,4
1665978433.774436,1,-4,4,0,-6,0,-1,3
1665978433.7766352,-1,-3,-9,1,-2,2,-3,-8
1665978433.7895715,-4,2,-8,-2,2,-4,1,-10
1665978433.7917724,0,4,2,3,1,1,-2,1
1665978433.7978072,-2,-2,0,1,1,-6,-4,-3
1665978433.800385,-1,4,5,3,2,-2,1,2
1665978433.8130581,2,-5,0,0,-4,5,-1,1
1665978433.8152728,1,3,-3,-2,-3,1,-2,-1
1665978433.8201187,1,-7,-7,-1,-1,-4,2,-1
1665978433.8220437,-3,-3,-3,-3,1,0,2,-1
1665978433.8271668,0,-1,3,-1,-3,-3,-2,0
1665978433.8293087,-2,1,-2,-1,-1,3,-1,-2
1665978433.8344574,0,-2,-6,-6,-5,-2,1,-2
1665978433.8364265,5,0,4,2,-3,-2,-8,-10
1665978433.849889,-3,2,2,1,-2,1,1,3
1665978433.8519626,-2,6,10,-4,-3,1,-3,-3
1665978433.856881,-2,3,-1,2,1,0,3,4
1665978433.8599997,-1,-5,-7,-1,-1,0,-9,-13
1665978433.872189,-1,2,5,0,1,-1,-4,2
1665978433.8744326,-2,-5,-3,3,2,-2,2,1
1665978433.8812397,-4,-1,-2,-2,-1,2,-3,0
1665978433.8837621,-1,2,2,-3,-1,-8,-1,4
1665978433.8961763,-2,-3,-2,-2,-1,-2,0,-2
1665978433.8982596,1,-2,-2,1,-4,2,0,-2
1665978433.9017928,1,-2,0,-1,1,0,0,-5
1665978433.903862,0,-5,9,3,-1,1,1,5
1665978433.909708,0,-9,-14,-1,-3,1,2,-2
1665978433.9118078,4,-4,-1,0,0,2,-2,2
1665978433.9172442,7,-5,-2,-1,0,1,-4,-1
1665978433.9193356,-1,3,0,-2,-2,-2,1,2
1665978433.93296,-3,1,-3,1,0,-3,-3,-2
1665978433.935164,-1,-8,-2,-1,-3,-1,-1,-6
1665978433.9395022,-2,0,1,2,-1,1,-1,0
1665978433.9414008,1,-3,-6,0,-2,2,0,-1
1665978433.9553726,2,-1,-2,0,2,-1,0,0
1665978433.9574146,-2,3,-1,-1,-1,-5,-1,-2
1665978433.9601254,-1,-2,-2,0,-1,-2,0,-1
1665978433.9628184,-1,4,-4,0,-2,-1,1,6
1665978433.9695823,4,-5,5,-1,-2,-10,0,-4
1665978433.9716084,0,1,0,-1,1,-1,-1,-3
1665978433.9770565,-2,1,-7,1,-1,-4,3,0
1665978433.979409,0,-3,0,2,0,1,-1,2
1665978433.9923134,-2,2,-4,-3,-3,-5,1,-1
1665978433.9948347,2,0,0,1,-3,-2,-1,0
1665978433.9998207,2,2,3,-1,-1,-5,-3,0
1665978434.0019746,-1,-2,-1,-5,2,3,1,2
1665978434.015883,-1,-2,2,3,-2,0,-7,-2
1665978434.0178504,-1,-1,-3,1,-2,0,-5,0
1665978434.020635,-2,-1,-4,-3,0,2,0,2
1665978434.0226734,-1,1,2,-1,-2,-2,1,-2
1665978434.0302289,-1,-5,-3,0,-3,0,-4,-2
1665978434.032277,1,-5,-2,-2,0,2,2,-1
1665978434.0368674,1,-1,5,-1,2,-2,-4,-4
1665978434.0389903,1,-1,-2,1,1,2,1,-1
1665978434.0522547,-2,5,0,-3,-2,-1,1,-2
1665978434.0543997,-3,0,-3,-6,1,0,-2,-2
1665978434.0597465,-2,-3,-2,-2,-3,-1,0,1
1665978434.0618534,-1,-3,-4,-1,0,-6,1,2
1665978434.075229,1,-1,4,-1,1,2,-1,-1
1665978434.077253,-1,1,-8,-1,-2,1,-3,1
1665978434.0800462,5,-1,6,2,3,-1,-1,-5
1665978434.0823953,-3,-1,0,-1,-1,-1,-2,-1
1665978434.0893593,-5,8,1,-2,-1,1,1,0
1665978434.0912876,1,-1,2,-1,-1,-1,-1,-2
1665978434.0973513,-4,-4,0,-3,-2,-4,3,-4
1665978434.0994987,2,1,-2,0,-3,5,1,-4
1665978434.1134682,6,-1,-4,-1,-1,-7,-2,1
1665978434.1158652,-1,3,0,3,-1,0,2,-2
1665978434.1194983,4,-7,1,-2,-3,1,-3,-2
1665978434.1216223,2,-3,2,1,4,2,-2,1
1665978434.1353765,2,-4,-7,1,-1,0,3,-2
1665978434.1374278,2,-7,-1,-1,-1,-5,-2,1
1665978434.139976,-3,0,-1,-2,-4,6,-3,1
1665978434.1419291,1,-6,-1,-2,-3,-10,-2,-2
1665978434.150044,-1,-4,5,-3,0,1,0,2
1665978434.1521146,-4,0,-2,0,0,-2,-1,-3
1665978434.1568937,-1,1,-2,-2,-5,0,-3,-1
1665978434.1587987,2,-6,2,-1,-1,0,0,-1
1665978434.1721284,2,-6,-3,2,2,0,-5,-3
1665978434.1741514,1,-6,-2,0,-3,-3,1,0
1665978434.180865,-2,-2,-3,1,-1,-2,-4,2
1665978434.18364,0,0,1,0,-2,0,-1,-1
1665978434.196275,-7,2,-7,-3,-1,-1,-6,-7
1665978434.1983478,2,-5,9,0,-1,2,1,0
1665978434.2012517,1,-8,-3,1,-2,-11,-1,-2
1665978434.2030892,-1,-4,0,-2,-5,-1,-1,-3
1665978434.2095375,1,-2,2,3,-1,4,4,4
1665978434.2115133,-3,-3,-8,-4,0,-4,-4,-2
1665978434.2169487,-3,6,-2,-2,-4,-2,-1,-5
1665978434.219029,-3,3,-3,-1,-2,3,-1,0
1665978434.233785,-3,-7,4,-4,-1,-3,-3,3
1665978434.2358546,-3,-3,-6,-3,-3,-2,-3,-1
1665978434.2392979,0,-1,-1,0,-1,0,0,0
